timestamp,ecg_value
1762880118.417634,1.15
1762880118.423724,1.11
1762880118.429996,1.2
1762880118.436162,1.36
1762880118.442296,1.56
1762880118.448545,1.72
1762880118.454753,1.83
1762880118.4610739,1.87
1762880118.46732,1.86
1762880118.473537,1.8
1762880118.479806,1.73
1762880118.486024,1.66
1762880118.4923542,1.62
1762880118.498718,1.61
1762880118.504715,1.63
1762880118.511001,1.7
1762880118.517313,1.86
1762880118.5235221,2.19
1762880118.5298402,2.24
1762880118.535997,1.43
1762880118.542866,1.08
1762880118.5485198,1.8
1762880118.554691,1.9
1762880118.561113,1.59
1762880118.5672529,1.69
1762880118.5735328,1.74
1762880118.5797088,1.57
1762880118.585963,1.53
1762880118.5922801,1.52
1762880118.598513,1.51
1762880118.605311,1.48
1762880118.610975,1.38
1762880118.617586,1.46
1762880118.623528,1.4
1762880118.629924,1.39
1762880118.636228,1.49
1762880118.6422698,1.39
1762880118.648696,1.44
1762880118.654801,1.5
1762880118.661033,1.4
1762880118.667456,1.46
1762880118.673635,1.52
1762880118.6798131,1.47
1762880118.685962,1.5
1762880118.692296,1.42
1762880118.698474,1.5
1762880118.704821,1.48
1762880118.711039,1.45
1762880118.717509,1.55
1762880118.723548,1.51
1762880118.7298539,1.48
1762880118.736209,1.55
1762880118.742286,1.48
1762880118.748627,1.49
1762880118.754843,1.56
1762880118.7610419,1.5
1762880118.767195,1.54
1762880118.773407,1.5
1762880118.779652,1.43
1762880118.785964,1.55
1762880118.792274,1.56
1762880118.798452,1.54
1762880118.804727,1.43
1762880118.810994,1.42
1762880118.817287,1.57
1762880118.8234339,1.51
1762880118.8297548,1.47
1762880118.8360372,1.55
1762880118.8424351,1.48
1762880118.848602,1.51
1762880118.854815,1.54
1762880118.860985,1.48
1762880118.867127,1.54
1762880118.873479,1.52
1762880118.879806,1.49
1762880118.888062,1.52
1762880118.892223,1.51
1762880118.89855,1.66
1762880118.904758,1.65
1762880118.9109068,1.56
1762880118.917505,1.71
1762880118.9234838,1.79
1762880118.929801,1.73
1762880118.9359539,1.75
1762880118.942304,1.66
1762880118.948684,1.69
1762880118.9547992,1.63
1762880118.96098,1.5
1762880118.967257,1.53
1762880118.97336,1.48
1762880118.97981,1.44
1762880118.986032,1.55
1762880118.9921448,1.5
1762880118.998334,1.5
1762880119.004846,1.48
1762880119.010986,1.39
1762880119.017173,1.53
1762880119.023516,1.53
1762880119.029687,1.47
1762880119.036288,1.53
1762880119.042089,1.47
1762880119.048383,1.5
1762880119.0546508,1.55
1762880119.0608902,1.52
1762880119.067317,1.63
1762880119.073421,1.56
1762880119.0797892,1.53
1762880119.086133,1.86
1762880119.092204,2.27
1762880119.098547,3.08
1762880119.104631,3.17
1762880119.110914,3.17
1762880119.117252,3.16
1762880119.123351,1.87
1762880119.129659,0.8
1762880119.135913,1.61
1762880119.142188,1.83
1762880119.1485171,1.5
1762880119.154815,1.45
1762880119.160908,1.5
1762880119.167382,1.58
1762880119.173623,1.54
1762880119.179549,1.5
1762880119.185955,1.55
1762880119.1921558,1.47
1762880119.198499,1.54
1762880119.2047958,1.6
1762880119.210794,1.52
1762880119.217104,1.59
1762880119.223338,1.55
1762880119.2296169,1.54
1762880119.235883,1.65
1762880119.242196,1.55
1762880119.248567,1.55
1762880119.2546618,1.7
1762880119.260962,1.64
1762880119.267107,1.63
1762880119.273341,1.65
1762880119.279624,1.65
1762880119.285952,1.74
1762880119.2920861,1.73
1762880119.29834,1.74
1762880119.30476,1.79
1762880119.310936,1.74
1762880119.317336,1.79
1762880119.323363,1.82
1762880119.329602,1.84
1762880119.33601,1.88
1762880119.342081,1.79
1762880119.348465,1.86
1762880119.35465,1.89
1762880119.3608909,1.81
1762880119.3671098,1.9
1762880119.373323,1.83
1762880119.37958,1.66
1762880119.3868291,1.75
1762880119.4251132,1.69
1762880119.433619,1.6
1762880119.433766,1.57
1762880119.435562,1.48
1762880119.4385018,1.48
1762880119.438621,1.49
1762880119.439307,1.53
1762880119.439401,1.59
1762880119.442915,1.5
1762880119.448587,1.43
1762880119.454911,1.56
1762880119.4608471,1.52
1762880119.467217,1.48
1762880119.4733179,1.46
1762880119.479562,1.48
1762880119.4858549,1.55
1762880119.492039,1.52
1762880119.498268,1.54
1762880119.504538,1.58
1762880119.510845,1.52
1762880119.517079,1.58
1762880119.5233338,1.58
1762880119.529562,1.52
1762880119.5359402,1.58
1762880119.542069,1.53
1762880119.5483022,1.56
1762880119.5546482,1.56
1762880119.560811,1.48
1762880119.567412,1.63
1762880119.5732749,1.61
1762880119.5795321,1.52
1762880119.5858161,1.57
1762880119.592181,1.46
1762880119.5982962,1.58
1762880119.604577,1.61
1762880119.610742,1.5
1762880119.617047,1.62
1762880119.623403,1.46
1762880119.629558,1.46
1762880119.635782,1.65
1762880119.6420858,1.51
1762880119.6482408,1.6
1762880119.654602,1.56
1762880119.660751,1.44
1762880119.667186,1.59
1762880119.673308,1.44
1762880119.679585,1.52
1762880119.68579,1.66
1762880119.692079,1.47
1762880119.698347,1.62
1762880119.704441,1.57
1762880119.710851,1.42
1762880119.717226,1.62
1762880119.723288,1.55
1762880119.7294421,1.63
1762880119.735722,1.78
1762880119.7419982,1.59
1762880119.748255,1.67
1762880119.754503,1.82
1762880119.760743,1.74
1762880119.767381,1.82
1762880119.7733362,1.6
1762880119.779501,1.68
1762880119.78578,1.79
1762880119.7920482,1.46
1762880119.798411,1.53
1762880119.80459,1.6
1762880119.810742,1.46
1762880119.817219,1.6
1762880119.823248,1.41
1762880119.829508,1.45
1762880119.835735,1.67
1762880119.8421109,1.44
1762880119.8484569,1.53
1762880119.854479,1.62
1762880119.8606982,1.49
1762880119.867102,1.57
1762880119.873255,1.46
1762880119.879464,1.54
1762880119.8857212,1.68
1762880119.8920598,1.41
1762880119.898586,1.56
1762880119.9044979,1.64
1762880119.910686,1.62
1762880119.916994,1.99
1762880119.9232051,2.37
1762880119.929465,3.16
1762880119.935733,3.17
1762880119.941948,3.17
1762880119.94822,3.16
1762880119.95508,1.59
1762880119.9607449,0.75
1762880119.9669728,1.76
1762880119.9733372,1.74
1762880119.979658,1.34
1762880119.9859898,1.52
1762880119.9918752,1.48
1762880119.99844,1.54
1762880120.0044532,1.49
1762880120.010632,1.38
1762880120.017004,1.6
1762880120.023201,1.45
1762880120.029472,1.43
1762880120.0357912,1.64
1762880120.04204,1.48
1762880120.0484421,1.58
1762880120.05456,1.57
1762880120.060802,1.43
1762880120.066943,1.64
1762880120.073187,1.55
1762880120.079423,1.55
1762880120.086538,1.71
1762880120.091914,1.47
1762880120.098144,1.62
1762880120.1044412,1.7
1762880120.1107001,1.55
1762880120.116992,1.75
1762880120.123185,1.62
1762880120.1293938,1.64
1762880120.136121,1.84
1762880120.141958,1.7
1762880120.148133,1.84
1762880120.154423,1.82
1762880120.160715,1.73
1762880120.166896,1.95
1762880120.173183,1.79
1762880120.179431,1.76
1762880120.185885,1.93
1762880120.191972,1.74
1762880120.198194,1.83
1762880120.204413,1.78
1762880120.21067,1.63
1762880120.2169302,1.78
1762880120.22327,1.56
1762880120.2294002,1.52
1762880120.236017,1.66
1762880120.2419672,1.39
1762880120.2482119,1.51
1762880120.2544289,1.56
1762880120.2607,1.43
1762880120.2669702,1.55
1762880120.273223,1.39
1762880120.2794518,1.41
1762880120.285961,1.54
1762880120.291942,1.42
1762880120.298208,1.52
1762880120.3044229,1.49
1762880120.310582,1.36
1762880120.3168619,1.56
1762880120.3231208,1.48
1762880120.329417,1.5
1762880120.335947,1.63
1762880120.341874,1.46
1762880120.3481102,1.58
1762880120.354358,1.56
1762880120.36059,1.43
1762880120.366879,1.62
1762880120.3731048,1.52
1762880120.379374,1.51
1762880120.385683,1.61
1762880120.3918579,1.43
1762880120.398134,1.56
1762880120.404361,1.57
1762880120.4105332,1.46
1762880120.416945,1.64
1762880120.4230678,1.5
1762880120.4294279,1.45
1762880120.435654,1.61
1762880120.4418712,1.44
1762880120.4481568,1.52
1762880120.4543512,1.54
1762880120.460574,1.45
1762880120.466922,1.6
1762880120.473096,1.49
1762880120.479323,1.48
1762880120.485769,1.61
1762880120.49187,1.51
1762880120.4981172,1.66
1762880120.504378,1.66
1762880120.510679,1.52
1762880120.516892,1.77
1762880120.523224,1.73
1762880120.529472,1.69
1762880120.535807,1.73
1762880120.541881,1.58
1762880120.5480719,1.66
1762880120.554223,1.54
1762880120.560669,1.43
1762880120.566908,1.59
1762880120.5731041,1.38
1762880120.579319,1.43
1762880120.585693,1.55
1762880120.591865,1.34
1762880120.598089,1.47
1762880120.6043699,1.5
1762880120.6105468,1.39
1762880120.616841,1.52
1762880120.623022,1.43
1762880120.6293051,1.4
1762880120.635742,1.54
1762880120.641865,1.46
1762880120.648133,1.54
1762880120.6542232,1.51
1762880120.660529,1.41
1762880120.6668422,1.55
1762880120.673043,1.51
1762880120.679328,1.67
1762880120.685676,2.18
1762880120.691954,2.93
1762880120.69802,3.17
1762880120.7042701,3.17
1762880120.7105238,3.17
1762880120.7168121,2.17
1762880120.72308,0.69
1762880120.729269,1.27
1762880120.7357209,1.83
1762880120.741798,1.39
1762880120.748029,1.3
1762880120.754997,1.47
1762880120.763532,1.35
1762880120.7731788,1.42
1762880120.773372,1.47
1762880120.801088,1.5
1762880120.8049521,1.49
1762880120.805089,1.45
1762880120.805187,1.41
1762880120.805293,1.48
1762880120.811042,1.43
1762880120.8216178,1.4
1762880120.825357,1.49
1762880120.829331,1.5
1762880120.837825,1.53
1762880120.8417962,1.59
1762880120.848027,1.48
1762880120.854304,1.48
1762880120.8605912,1.52
1762880120.8667881,1.51
1762880120.873018,1.53
1762880120.879394,1.59
1762880120.885589,1.64
1762880120.891702,1.63
1762880120.897975,1.63
1762880120.9042492,1.7
1762880120.9104698,1.75
1762880120.9167628,1.74
1762880120.922957,1.68
1762880120.929228,1.71
1762880120.9355252,1.77
1762880120.9417899,1.75
1762880120.947968,1.72
1762880120.9542809,1.74
1762880120.960557,1.73
1762880120.966778,1.65
1762880120.973008,1.59
1762880120.979237,1.59
1762880120.986166,1.53
1762880120.991772,1.47
1762880120.998014,1.45
1762880121.004341,1.44
1762880121.010656,1.41
1762880121.01682,1.43
1762880121.023051,1.45
1762880121.029644,1.37
1762880121.035594,1.37
1762880121.04174,1.4
1762880121.048086,1.4
1762880121.054303,1.43
1762880121.06052,1.38
1762880121.0668,1.4
1762880121.0730271,1.45
1762880121.079225,1.43
1762880121.086229,1.42
1762880121.091852,1.45
1762880121.098089,1.45
1762880121.104355,1.46
1762880121.110471,1.46
1762880121.116791,1.47
1762880121.122954,1.5
1762880121.129262,1.46
1762880121.135543,1.46
1762880121.14182,1.52
1762880121.148095,1.51
1762880121.154284,1.52
1762880121.1605492,1.5
1762880121.1666791,1.51
1762880121.17298,1.51
1762880121.1792698,1.48
1762880121.1854231,1.52
1762880121.1916668,1.5
1762880121.19793,1.42
1762880121.204164,1.48
1762880121.210646,1.53
1762880121.216701,1.52
1762880121.222934,1.51
1762880121.229204,1.48
1762880121.2354848,1.49
1762880121.241674,1.51
1762880121.24802,1.46
1762880121.2541702,1.5
1762880121.260386,1.51
1762880121.266807,1.49
1762880121.273032,1.56
1762880121.279268,1.59
1762880121.2855911,1.61
1762880121.291879,1.6
1762880121.297948,1.67
1762880121.304151,1.77
1762880121.310401,1.72
1762880121.316779,1.63
1762880121.3229902,1.69
1762880121.3291671,1.63
1762880121.335521,1.52
1762880121.3417091,1.48
1762880121.347908,1.44
1762880121.354166,1.44
1762880121.360409,1.41
1762880121.366743,1.43
1762880121.373055,1.43
1762880121.379151,1.41
1762880121.385508,1.45
1762880121.3917718,1.48
1762880121.398039,1.45
1762880121.404198,1.47
1762880121.410423,1.45
1762880121.41672,1.45
1762880121.422996,1.5
1762880121.429205,1.49
1762880121.4354591,1.49
1762880121.4417632,1.51
1762880121.447872,1.49
1762880121.4541109,1.55
1762880121.4604118,1.72
1762880121.466912,2.15
1762880121.472926,3.04
1762880121.479213,3.17
1762880121.4854882,3.17
1762880121.491644,3.16
1762880121.4980109,1.71
1762880121.5041258,0.71
1762880121.510407,1.54
1762880121.517121,1.75
1762880121.5229492,1.41
1762880121.529173,1.32
1762880121.5355148,1.46
1762880121.541664,1.52
1762880121.5479171,1.42
1762880121.554142,1.41
1762880121.560382,1.46
1762880121.5675468,1.47
1762880121.578954,1.47
1762880121.594631,1.42
1762880121.594805,1.49
1762880121.595495,1.56
1762880121.599655,1.51
1762880121.6042502,1.49
1762880121.6103702,1.53
1762880121.616676,1.52
1762880121.622855,1.52
1762880121.629173,1.55
1762880121.6355069,1.58
1762880121.641692,1.59
1762880121.647912,1.59
1762880121.65411,1.63
1762880121.660501,1.65
1762880121.66667,1.59
1762880121.672844,1.64
1762880121.6791549,1.73
1762880121.685565,1.78
1762880121.691844,1.77
1762880121.697898,1.74
1762880121.704057,1.78
1762880121.7102988,1.75
1762880121.7167091,1.79
1762880121.7228348,1.84
1762880121.7290518,1.78
1762880121.7353542,1.79
1762880121.7415838,1.8
1762880121.747927,1.75
1762880121.754175,1.69
1762880121.76043,1.64
1762880121.766954,1.61
1762880121.772833,1.58
1762880121.779119,1.49
1762880121.785381,1.47
1762880121.791702,1.46
1762880121.798008,1.44
1762880121.804137,1.46
1762880121.810577,1.43
1762880121.816776,1.41
1762880121.822888,1.47
1762880121.829005,1.44
1762880121.835371,1.42
1762880121.841644,1.45
1762880121.847845,1.43
1762880121.8540428,1.47
1762880121.860331,1.48
1762880121.867098,1.44
1762880121.872777,1.47
1762880121.879162,1.47
1762880121.885422,1.49
1762880121.891522,1.49
1762880121.8977978,1.46
1762880121.904068,1.5
1762880121.910292,1.52
1762880121.917048,1.52
1762880121.922755,1.55
1762880121.9290519,1.51
1762880121.935306,1.51
1762880121.9415848,1.53
1762880121.947804,1.49
1762880121.954061,1.51
1762880121.960317,1.51
1762880121.9666681,1.47
1762880121.9728189,1.49
1762880121.97902,1.5
1762880121.9853928,1.52
1762880121.99161,1.52
1762880121.997942,1.48
1762880122.004062,1.49
1762880122.010327,1.51
1762880122.016992,1.48
1762880122.022798,1.53
1762880122.0291,1.53
1762880122.035348,1.49
1762880122.0416682,1.46
1762880122.047829,1.5
1762880122.05407,1.57
1762880122.060267,1.56
1762880122.066619,1.57
1762880122.072831,1.65
1762880122.079065,1.6
1762880122.085365,1.61
1762880122.091706,1.72
1762880122.097877,1.73
1762880122.103978,1.74
1762880122.110267,1.69
1762880122.1169229,1.66
1762880122.122785,1.61
1762880122.12903,1.5
1762880122.135412,1.47
1762880122.141591,1.52
1762880122.1479511,1.48
1762880122.153992,1.46
1762880122.160251,1.49
1762880122.166942,1.47
1762880122.183591,1.47
1762880122.186522,1.5
1762880122.186721,1.51
1762880122.2204978,1.49
1762880122.229624,1.44
1762880122.229707,1.49
1762880122.2297611,1.52
1762880122.229813,1.53
1762880122.239973,1.52
1762880122.240213,1.44
1762880122.240406,1.49
1762880122.241605,1.63
1762880122.2526422,1.64
1762880122.253991,1.76
1762880122.260297,2.34
1762880122.26751,3.16
1762880122.272844,3.17
1762880122.2792141,3.17
1762880122.285259,3.16
1762880122.2914162,1.62
1762880122.297774,0.75
1762880122.304001,1.59
1762880122.310261,1.79
1762880122.316559,1.39
1762880122.322797,1.35
1762880122.32908,1.43
1762880122.335314,1.52
1762880122.3414662,1.52
1762880122.347786,1.44
1762880122.353939,1.47
1762880122.360255,1.51
1762880122.366634,1.45
1762880122.372841,1.52
1762880122.37906,1.54
1762880122.385368,1.51
1762880122.3914611,1.52
1762880122.397795,1.51
1762880122.4039779,1.53
1762880122.410174,1.59
1762880122.416616,1.57
1762880122.4228559,1.57
1762880122.429122,1.59
1762880122.4356039,1.59
1762880122.4415271,1.62
1762880122.4479098,1.6
1762880122.453946,1.64
1762880122.460308,1.67
1762880122.46643,1.71
1762880122.4727738,1.75
1762880122.479126,1.74
1762880122.485373,1.75
1762880122.491564,1.8
1762880122.4977212,1.78
1762880122.504033,1.81
1762880122.5101929,1.85
1762880122.516478,1.82
1762880122.5226371,1.79
1762880122.5292559,1.74
1762880122.53524,1.8
1762880122.54145,1.77
1762880122.547775,1.67
1762880122.554045,1.64
1762880122.56016,1.59
1762880122.566622,1.52
1762880122.572704,1.51
1762880122.578945,1.53
1762880122.585204,1.48
1762880122.591448,1.47
1762880122.597683,1.45
1762880122.6038988,1.41
1762880122.610257,1.44
1762880122.616496,1.44
1762880122.6226518,1.47
1762880122.629003,1.43
1762880122.635165,1.42
1762880122.6413949,1.47
1762880122.6477451,1.46
1762880122.6538932,1.45
1762880122.660186,1.49
1762880122.6673439,1.48
1762880122.6726599,1.52
1762880122.6790679,1.52
1762880122.685209,1.52
1762880122.691363,1.54
1762880122.69766,1.47
1762880122.703924,1.49
1762880122.710186,1.56
1762880122.716595,1.46
1762880122.722688,1.5
1762880122.728965,1.54
1762880122.7351198,1.51
1762880122.74134,1.49
1762880122.7476501,1.52
1762880122.753867,1.58
1762880122.760135,1.55
1762880122.766489,1.47
1762880122.77268,1.53
1762880122.7789419,1.55
1762880122.785247,1.49
1762880122.791348,1.56
1762880122.797617,1.53
1762880122.803871,1.51
1762880122.810208,1.55
1762880122.816622,1.61
1762880122.822606,1.63
1762880122.828913,1.63
1762880122.835279,1.69
1762880122.841316,1.78
1762880122.847647,1.7
1762880122.853941,1.66
1762880122.86007,1.76
1762880122.866421,1.65
1762880122.872685,1.51
1762880122.878919,1.51
1762880122.8852448,1.49
1762880122.89135,1.48
1762880122.897585,1.45
1762880122.903948,1.45
1762880122.910113,1.53
1762880122.916661,1.45
1762880122.922815,1.41
1762880122.928926,1.48
1762880122.935199,1.46
1762880122.9413471,1.51
1762880122.947642,1.55
1762880122.953842,1.47
1762880122.960097,1.53
1762880122.966432,1.52
1762880122.972613,1.51
1762880122.97881,1.6
1762880122.9850821,1.52
1762880122.99137,1.54
1762880122.99759,1.64
1762880123.003863,1.85
1762880123.010221,2.57
1762880123.016505,3.16
1762880123.0225952,3.17
1762880123.028845,3.17
1762880123.035143,3.15
1762880123.0413408,1.61
1762880123.0476,0.89
1762880123.053876,1.55
1762880123.060069,1.77
1762880123.066438,1.44
1762880123.072632,1.35
1762880123.0788648,1.54
1762880123.085032,1.52
1762880123.091409,1.5
1762880123.097546,1.49
1762880123.1038442,1.4
1762880123.11022,1.48
1762880123.116438,1.53
1762880123.122848,1.54
1762880123.1288269,1.54
1762880123.135169,1.49
1762880123.14134,1.54
1762880123.1476119,1.57
1762880123.153929,1.49
1762880123.160157,1.56
1762880123.166416,1.58
1762880123.1725068,1.58
1762880123.1788402,1.61
1762880123.185077,1.56
1762880123.1913018,1.63
1762880123.1975732,1.65
1762880123.20385,1.56
1762880123.2100039,1.68
1762880123.2162712,1.77
1762880123.2225852,1.73
1762880123.2287831,1.72
1762880123.2350678,1.75
1762880123.241361,1.81
1762880123.2477682,1.77
1762880123.253779,1.76
1762880123.260107,1.88
1762880123.266279,1.84
1762880123.272554,1.75
1762880123.278929,1.77
1762880123.2850292,1.75
1762880123.2912881,1.73
1762880123.297607,1.71
1762880123.303873,1.58
1762880123.31009,1.59
1762880123.3163571,1.53
1762880123.322528,1.43
1762880123.329046,1.53
1762880123.335092,1.47
1762880123.341304,1.41
1762880123.34751,1.44
1762880123.3537312,1.41
1762880123.3600671,1.49
1762880123.366486,1.46
1762880123.3725371,1.44
1762880123.378777,1.49
1762880123.3850849,1.41
1762880123.391274,1.45
1762880123.397513,1.46
1762880123.403832,1.44
1762880123.4099882,1.54
1762880123.416647,1.49
1762880123.422857,1.43
1762880123.428811,1.55
1762880123.435217,1.52
1762880123.441251,1.54
1762880123.4476328,1.54
1762880123.453897,1.43
1762880123.460049,1.57
1762880123.46655,1.54
1762880123.472777,1.5
1762880123.478806,1.58
1762880123.484968,1.5
1762880123.4912908,1.49
1762880123.497489,1.58
1762880123.504131,1.52
1762880123.53533,1.56
1762880123.5354528,1.48
1762880123.535536,1.46
1762880123.535615,1.57
1762880123.5356932,1.51
1762880123.548697,1.54
1762880123.548865,1.62
1762880123.559653,1.55
1762880123.560562,1.66
1762880123.566763,1.65
1762880123.575053,1.66
1762880123.578909,1.75
1762880123.585005,1.68
1762880123.591979,1.7
1762880123.598309,1.75
1762880123.6037571,1.57
1762880123.610042,1.54
1762880123.616713,1.52
1762880123.622619,1.43
1762880123.6288278,1.48
1762880123.6350741,1.43
1762880123.641417,1.42
1762880123.647615,1.44
1762880123.653686,1.41
1762880123.6599438,1.51
1762880123.666325,1.44
1762880123.6725771,1.41
1762880123.678735,1.5
1762880123.6849558,1.41
1762880123.6913018,1.49
1762880123.697417,1.54
1762880123.703721,1.4
1762880123.71001,1.51
1762880123.716799,1.56
1762880123.7225258,1.47
1762880123.728742,1.54
1762880123.734983,1.53
1762880123.7412312,1.8
1762880123.747437,2.43
1762880123.753681,3.16
1762880123.759958,3.17
1762880123.766263,3.17
1762880123.772491,3.15
1762880123.778763,1.6
1762880123.784968,0.72
1762880123.7911758,1.52
1762880123.79744,1.74
1762880123.803715,1.36
1762880123.809978,1.4
1762880123.816308,1.49
1762880123.8224409,1.41
1762880123.8287811,1.47
1762880123.834974,1.39
1762880123.841333,1.42
1762880123.847512,1.5
1762880123.8538072,1.42
1762880123.86001,1.48
1762880123.866345,1.47
1762880123.872433,1.44
1762880123.878735,1.56
1762880123.884907,1.52
1762880123.891201,1.5
1762880123.8975098,1.57
1762880123.903664,1.49
1762880123.9099882,1.58
1762880123.91615,1.59
1762880123.922708,1.53
1762880123.9288352,1.66
1762880123.934928,1.59
1762880123.941178,1.62
1762880123.9474409,1.71
1762880123.953675,1.62
1762880123.959906,1.74
1762880123.966292,1.74
1762880123.972417,1.7
1762880123.978774,1.82
1762880123.9849741,1.74
1762880123.9911392,1.75
1762880123.9973571,1.87
1762880124.003703,1.75
1762880124.009929,1.81
1762880124.016597,1.81
1762880124.0224671,1.71
1762880124.028725,1.76
1762880124.034991,1.65
1762880124.041245,1.6
1762880124.047453,1.59
1762880124.053684,1.47
1762880124.0600839,1.52
1762880124.0662,1.47
1762880124.0724401,1.35
1762880124.0786529,1.51
1762880124.0849102,1.43
1762880124.0911071,1.37
1762880124.0974982,1.42
1762880124.1037161,1.37
1762880124.109893,1.5
1762880124.116149,1.46
1762880124.122405,1.35
1762880124.1286762,1.5
1762880124.134953,1.44
1762880124.141074,1.44
1762880124.147842,1.52
1762880124.1535842,1.41
1762880124.159832,1.52
1762880124.166162,1.5
1762880124.1723552,1.43
1762880124.178626,1.55
1762880124.184854,1.48
1762880124.191117,1.51
1762880124.19745,1.55
1762880124.203605,1.42
1762880124.209924,1.52
1762880124.2160761,1.57
1762880124.222535,1.47
1762880124.22862,1.54
1762880124.2348318,1.49
1762880124.241193,1.5
1762880124.24766,1.56
1762880124.253612,1.45
1762880124.2597718,1.55
1762880124.266088,1.54
1762880124.272606,1.42
1762880124.2786272,1.56
1762880124.284891,1.51
1762880124.2910988,1.49
1762880124.297476,1.55
1762880124.303602,1.44
1762880124.3099132,1.57
1762880124.3162181,1.57
1762880124.3224802,1.49
1762880124.328557,1.66
1762880124.334896,1.62
1762880124.3411121,1.6
1762880124.347658,1.77
1762880124.353618,1.74
1762880124.359722,1.75
1762880124.366291,1.69
1762880124.372315,1.63
1762880124.378618,1.72
1762880124.384854,1.53
1762880124.3910851,1.45
1762880124.397381,1.52
1762880124.403593,1.41
1762880124.409887,1.48
1762880124.416103,1.49
1762880124.422366,1.4
1762880124.4285371,1.52
1762880124.434773,1.44
1762880124.441109,1.42
1762880124.447291,1.53
1762880124.453581,1.42
1762880124.459894,1.46
1762880124.46616,1.47
1762880124.472343,1.42
1762880124.4787462,1.6
1762880124.4850829,1.52
1762880124.491154,1.48
1762880124.49758,1.55
1762880124.503629,1.47
1762880124.50994,1.66
1762880124.5161479,1.91
1762880124.5223749,2.32
1762880124.5287209,3.17
1762880124.534917,3.17
1762880124.5412679,3.17
1762880124.5474298,3.13
1762880124.5535738,1.29
1762880124.559996,0.85
1762880124.5660858,1.72
1762880124.5723221,1.69
1762880124.578563,1.44
1762880124.585004,1.33
1762880124.591101,1.44
1762880124.5974882,1.53
1762880124.6036658,1.36
1762880124.609944,1.44
1762880124.616102,1.52
1762880124.622399,1.42
1762880124.628813,1.5
1762880124.635117,1.45
1762880124.6410089,1.46
1762880124.647372,1.56
1762880124.653544,1.45
1762880124.659866,1.51
1762880124.666317,1.54
1762880124.6723342,1.47
1762880124.678686,1.62
1762880124.684708,1.55
1762880124.691029,1.5
1762880124.697338,1.67
1762880124.703496,1.57
1762880124.70975,1.62
1762880124.716013,1.65
1762880124.7223392,1.63
1762880124.728565,1.77
1762880124.734705,1.69
1762880124.7409332,1.7
1762880124.747382,1.85
1762880124.7535439,1.72
1762880124.7597618,1.76
1762880124.765952,1.82
1762880124.772297,1.71
1762880124.7785652,1.89
1762880124.7847629,1.85
1762880124.790972,1.76
1762880124.797236,1.82
1762880124.803505,1.68
1762880124.809988,1.69
1762880124.8164558,1.66
1762880124.822287,1.51
1762880124.8286028,1.58
1762880124.834822,1.47
1762880124.841014,1.41
1762880124.8472378,1.5
1762880124.85351,1.38
1762880124.859862,1.42
1762880124.865966,1.43
1762880124.872284,1.35
1762880124.8786151,1.51
1762880124.885018,1.44
1762880124.891006,1.39
1762880124.897229,1.5
1762880124.903525,1.39
1762880124.9099221,1.48
1762880124.9160461,1.49
1762880124.922245,1.39
1762880124.9287858,1.54
1762880124.935018,1.49
1762880124.9409401,1.44
1762880124.947306,1.53
1762880124.95347,1.42
1762880124.959764,1.53
1762880124.969864,1.57
1762880124.973444,1.42
1762880124.984947,1.56
1762880124.985066,1.5
1762880124.992202,1.46
1762880125.003693,1.58
1762880125.003865,1.43
1762880125.009804,1.48
1762880125.018831,1.53
1762880125.0223098,1.42
1762880125.0338979,1.56
1762880125.035865,1.52
1762880125.0413282,1.46
1762880125.047324,1.55
1762880125.0533981,1.41
1762880125.0600839,1.49
1762880125.067002,1.55
1762880125.072343,1.41
1762880125.0784261,1.53
1762880125.084685,1.5
1762880125.090946,1.47
1762880125.097182,1.57
1762880125.1033769,1.44
1762880125.109789,1.51
1762880125.1160572,1.53
1762880125.12225,1.42
1762880125.128431,1.57
1762880125.1347232,1.49
1762880125.140958,1.44
1762880125.147228,1.6
1762880125.1533701,1.48
1762880125.1597261,1.53
1762880125.1659389,1.54
1762880125.172132,1.46
1762880125.178508,1.7
1762880125.1847098,1.65
1762880125.190909,1.55
1762880125.197278,1.71
1762880125.2033532,1.7
1762880125.209722,1.75
1762880125.2159412,1.75
1762880125.2222688,1.56
1762880125.2284749,1.73
1762880125.234786,1.62
1762880125.2409332,1.45
1762880125.247308,1.57
1762880125.253401,1.43
1762880125.2596061,1.46
1762880125.2659469,1.51
1762880125.2722518,1.4
1762880125.2784698,1.56
1762880125.284571,1.46
1762880125.2908869,1.38
1762880125.297457,1.54
1762880125.30333,1.44
1762880125.309576,1.49
1762880125.316003,1.52
1762880125.322141,1.4
1762880125.328398,1.55
1762880125.334649,1.49
1762880125.34081,1.47
1762880125.3477278,1.61
1762880125.353313,1.46
1762880125.3597288,1.6
1762880125.365933,1.89
1762880125.372187,2.22
1762880125.378382,3.16
1762880125.3846972,3.17
1762880125.390887,3.17
1762880125.397305,3.15
1762880125.4033222,1.4
1762880125.4096918,0.78
1762880125.415927,1.73
1762880125.422178,1.7
1762880125.4285529,1.41
1762880125.434595,1.38
1762880125.440851,1.46
1762880125.447333,1.58
1762880125.45332,1.39
1762880125.459581,1.44
1762880125.4658601,1.52
1762880125.472171,1.39
1762880125.478356,1.53
1762880125.484679,1.51
1762880125.490873,1.46
1762880125.497601,1.59
1762880125.50327,1.47
1762880125.5096588,1.52
1762880125.515929,1.59
1762880125.522145,1.46
1762880125.528341,1.62
1762880125.534621,1.58
1762880125.54087,1.51
1762880125.54713,1.66
1762880125.553279,1.58
1762880125.5597281,1.64
1762880125.565963,1.72
1762880125.572105,1.59
1762880125.578353,1.77
1762880125.584553,1.72
1762880125.59085,1.64
1762880125.597253,1.86
1762880125.6033,1.76
1762880125.609609,1.79
1762880125.61587,1.85
1762880125.622148,1.71
1762880125.6283221,1.89
1762880125.634569,1.83
1762880125.640804,1.75
1762880125.6471539,1.91
1762880125.653301,1.69
1762880125.659596,1.69
1762880125.665838,1.72
1762880125.672089,1.53
1762880125.6783528,1.65
1762880125.684612,1.52
1762880125.690824,1.41
1762880125.697202,1.57
1762880125.703308,1.4
1762880125.709776,1.41
1762880125.7160041,1.5
1762880125.7221,1.38
1762880125.728378,1.52
1762880125.734598,1.44
1762880125.740994,1.34
1762880125.747217,1.5
1762880125.7532501,1.43
1762880125.759792,1.48
1762880125.765855,1.52
1762880125.772117,1.38
1762880125.778363,1.54
1762880125.784501,1.51
1762880125.790792,1.43
1762880125.797256,1.61
1762880125.8032598,1.47
1762880125.809705,1.47
1762880125.815982,1.57
1762880125.822082,1.43
1762880125.828309,1.55
1762880125.834542,1.53
1762880125.840744,1.44
1762880125.847237,1.58
1762880125.853339,1.48
1762880125.859675,1.49
1762880125.865791,1.57
1762880125.872302,1.43
1762880125.87841,1.56
1762880125.884495,1.5
1762880125.89072,1.41
1762880125.8971572,1.58
1762880125.903201,1.47
1762880125.909605,1.5
1762880125.915871,1.58
1762880125.9220932,1.41
1762880125.9283059,1.54
1762880125.934593,1.52
1762880125.940702,1.43
1762880125.947065,1.57
1762880125.953175,1.46
1762880125.9595442,1.51
1762880125.965746,1.59
1762880125.972045,1.42
1762880125.978247,1.54
1762880125.984488,1.52
1762880125.9907,1.45
1762880125.9979992,1.58
1762880126.0031738,1.46
1762880126.009577,1.47
1762880126.015755,1.57
1762880126.022136,1.45
1762880126.028425,1.6
1762880126.034531,1.6
1762880126.040788,1.55
1762880126.047159,1.74
1762880126.053293,1.59
1762880126.059573,1.7
1762880126.065706,1.84
1762880126.0720131,1.64
1762880126.078368,1.68
1762880126.084457,1.68
1762880126.090795,1.58
1762880126.0972302,1.63
1762880126.103184,1.46
1762880126.109477,1.49
1762880126.115777,1.54
1762880126.122011,1.38
1762880126.128269,1.54
1762880126.134507,1.5
1762880126.140727,1.42
1762880126.147039,1.58
1762880126.153169,1.42
1762880126.1593988,1.48
1762880126.1656551,1.56
1762880126.171952,1.38
1762880126.178277,1.59
1762880126.1844292,1.55
1762880126.190691,1.41
1762880126.197082,1.64
1762880126.203151,1.53
1762880126.209455,1.49
1762880126.2157362,1.64
1762880126.222144,1.7
1762880126.22829,2.23
1762880126.234439,3.01
1762880126.240792,3.17
1762880126.247019,3.17
1762880126.253291,3.15
1762880126.2594838,1.69
1762880126.26571,0.82
1762880126.27201,1.47
1762880126.2782521,1.83
1762880126.284462,1.46
1762880126.290893,1.32
1762880126.297415,1.63
1762880126.303215,1.48
1762880126.30945,1.43
1762880126.315708,1.55
1762880126.3220239,1.41
1762880126.328299,1.52
1762880126.3344278,1.52
1762880126.3407848,1.43
1762880126.3470569,1.6
1762880126.35319,1.48
1762880126.359474,1.5
1762880126.365748,1.6
1762880126.371935,1.46
1762880126.378237,1.63
1762880126.511646,1.59
1762880126.515249,1.48
1762880126.515466,1.7
1762880126.517001,1.58
1762880126.517357,1.6
1762880126.517579,1.74
1762880126.517764,1.58
1762880126.517938,1.74
1762880126.518105,1.73
1762880126.518281,1.64
1762880126.518456,1.83
1762880126.518631,1.75
1762880126.518826,1.78
1762880126.519016,1.88
1762880126.519351,1.73
1762880126.519528,1.88
1762880126.519705,1.86
1762880126.520063,1.73
1762880126.5202508,1.9
1762880126.520457,1.77
1762880126.5206568,1.75
1762880126.520858,1.81
1762880126.5251288,1.6
1762880126.528446,1.72
1762880126.534441,1.64
1762880126.540721,1.46
1762880126.546974,1.62
1762880126.5532181,1.48
1762880126.5594208,1.46
1762880126.565641,1.56
1762880126.571927,1.36
1762880126.5781739,1.5
1762880126.584566,1.52
1762880126.590702,1.42
1762880126.597087,1.57
1762880126.603076,1.46
1762880126.609382,1.45
1762880126.6156101,1.55
1762880126.6218822,1.42
1762880126.628196,1.57
1762880126.634332,1.54
1762880126.640737,1.41
1762880126.6468968,1.62
1762880126.6531048,1.5
1762880126.659403,1.52
1762880126.6655948,1.67
1762880126.6718662,1.46
1762880126.6781561,1.57
1762880126.684402,1.57
1762880126.690603,1.48
1762880126.696862,1.66
1762880126.703059,1.52
1762880126.709375,1.5
1762880126.715602,1.63
1762880126.72193,1.46
1762880126.728244,1.58
1762880126.734405,1.55
1762880126.740577,1.45
1762880126.747,1.65
1762880126.7530072,1.53
1762880126.7593899,1.51
1762880126.7656279,1.61
1762880126.771938,1.48
1762880126.7781398,1.62
1762880126.784252,1.59
1762880126.79076,1.42
1762880126.796897,1.64
1762880126.8030741,1.54
1762880126.809379,1.49
1762880126.815538,1.6
1762880126.821988,1.48
1762880126.82861,1.65
1762880126.834347,1.61
1762880126.8406389,1.44
1762880126.846802,1.65
1762880126.8531342,1.58
1762880126.8594508,1.63
1762880126.8655412,1.79
1762880126.8718662,1.56
1762880126.87918,1.73
1762880126.884542,1.86
1762880126.8906088,1.73
1762880126.896788,1.82
1762880126.9030871,1.68
1762880126.909376,1.7
1762880126.915603,1.72
1762880126.921834,1.45
1762880126.9284322,1.6
1762880126.934431,1.62
1762880126.940625,1.41
1762880126.946836,1.61
1762880126.953012,1.53
1762880126.9594262,1.49
1762880126.9655411,1.61
1762880126.971851,1.48
1762880126.9782999,1.63
1762880126.984405,1.57
1762880126.990533,1.43
1762880126.9967942,1.69
1762880127.0030122,1.56
1762880127.0093231,1.49
1762880127.015563,1.67
1762880127.021962,1.56
1762880127.0283751,1.65
1762880127.0344589,1.68
1762880127.04057,1.67
1762880127.046815,2.17
1762880127.053102,2.76
1762880127.059432,3.17
1762880127.065648,3.17
1762880127.071862,3.17
1762880127.07849,2.91
1762880127.084317,1.11
1762880127.090522,1.03
1762880127.0969422,1.94
1762880127.10301,1.69
1762880127.1093981,1.37
1762880127.1155462,1.61
1762880127.1217961,1.5
1762880127.1282,1.58
1762880127.134347,1.55
1762880127.140501,1.44
1762880127.146881,1.69
1762880127.1530628,1.54
1762880127.1594381,1.5
1762880127.165735,1.61
1762880127.171835,1.5
1762880127.178754,1.72
1762880127.184565,1.68
1762880127.190509,1.49
1762880127.196794,1.76
1762880127.2030919,1.64
1762880127.2096581,1.57
1762880127.215559,1.77
1762880127.221801,1.63
1762880127.228089,1.76
1762880127.234499,1.75
1762880127.2405891,1.63
1762880127.246776,1.88
1762880127.253036,1.72
1762880127.2594,1.69
1762880127.265548,1.96
1762880127.271821,1.8
1762880127.2781389,1.9
1762880127.28448,1.94
1762880127.290519,1.75
1762880127.296802,1.96
1762880127.302976,1.91
1762880127.3095438,1.87
1762880127.315517,2.01
1762880127.321801,1.81
1762880127.328624,1.91
1762880127.3342552,1.87
1762880127.3405042,1.66
1762880127.346773,1.82
1762880127.352938,1.68
1762880127.359197,1.61
1762880127.36561,1.71
1762880127.3718,1.47
1762880127.378003,1.6
1762880127.384453,1.63
1762880127.390569,1.43
1762880127.396788,1.65
1762880127.403039,1.53
1762880127.409216,1.46
1762880127.4154959,1.65
1762880127.421846,1.49
1762880127.428076,1.61
1762880127.434317,1.58
1762880127.4405918,1.4
1762880127.446835,1.72
1762880127.4529889,1.63
1762880127.4593642,1.53
1762880127.4655628,1.66
1762880127.471796,1.52
1762880127.4782348,1.68
1762880127.484395,1.71
1762880127.4905128,1.5
1762880127.496762,1.71
1762880127.502908,1.59
1762880127.5092008,1.6
1762880127.5154612,1.77
1762880127.521751,1.53
1762880127.528594,1.65
1762880127.5510662,1.65
1762880127.555829,1.5
1762880127.5560489,1.73
1762880127.569421,1.62
1762880127.590639,1.58
1762880127.60194,1.72
1762880127.6022248,1.52
1762880127.602338,1.67
1762880127.602533,1.66
1762880127.602603,1.49
1762880127.6026611,1.74
1762880127.602902,1.63
1762880127.609227,1.57
1762880127.6154082,1.79
1762880127.621724,1.62
1762880127.628072,1.69
1762880127.634221,1.87
1762880127.640652,1.79
1762880127.646742,1.97
1762880127.6529942,1.78
1762880127.65919,1.65
1762880127.665403,1.88
1762880127.6717608,1.66
1762880127.67815,1.69
1762880127.684108,1.68
1762880127.690392,1.45
1762880127.696702,1.65
1762880127.702924,1.55
1762880127.709193,1.49
1762880127.7153971,1.65
1762880127.721739,1.48
1762880127.728242,1.61
1762880127.734155,1.65
1762880127.740433,1.48
1762880127.7467232,1.64
1762880127.75289,1.53
1762880127.759098,1.54
1762880127.765544,1.74
1762880127.771677,1.49
1762880127.7779741,1.64
1762880127.784137,1.69
1762880127.79038,1.5
1762880127.796652,1.79
1762880127.802874,1.88
1762880127.8093078,2.32
1762880127.8154209,3.17
1762880127.8218722,3.17
1762880127.8279302,3.17
1762880127.8342059,3.17
1762880127.840648,1.96
1762880127.8466098,0.95
1762880127.85283,1.44
1762880127.859251,1.77
1762880127.8653288,1.69
1762880127.871645,1.32
1762880127.878069,1.53
1762880127.884233,1.61
1762880127.890383,1.38
1762880127.896631,1.58
1762880127.9028852,1.52
1762880127.909218,1.49
1762880127.9153962,1.65
1762880127.921643,1.42
1762880127.9278898,1.56
1762880127.9341,1.63
1762880127.940329,1.45
1762880127.946618,1.67
1762880127.952855,1.55
1762880127.959199,1.49
1762880127.965405,1.69
1762880127.971848,1.49
1762880127.978208,1.63
1762880127.984129,1.72
1762880127.990298,1.49
1762880127.9966831,1.67
1762880128.00282,1.67
1762880128.0091898,1.65
1762880128.015382,1.81
1762880128.021698,1.57
1762880128.027911,1.75
1762880128.034102,1.89
1762880128.04033,1.64
1762880128.046585,1.89
1762880128.0528169,1.81
1762880128.059184,1.68
1762880128.0653481,1.9
1762880128.0716648,1.75
1762880128.077916,1.8
1762880128.084179,1.8
1762880128.090343,1.55
1762880128.0966542,1.75
1762880128.102804,1.6
1762880128.1094,1.5
1762880128.115413,1.64
1762880128.121589,1.37
1762880128.1279922,1.45
1762880128.1341891,1.49
1762880128.140374,1.26
1762880128.1467462,1.5
1762880128.152779,1.38
1762880128.159169,1.32
1762880128.165298,1.51
1762880128.171678,1.28
1762880128.178037,1.38
1762880128.1840231,1.45
1762880128.190339,1.27
1762880128.1965299,1.51
1762880128.2027872,1.4
1762880128.209024,1.32
1762880128.215262,1.55
1762880128.2215528,1.32
1762880128.227763,1.42
1762880128.234095,1.52
1762880128.240336,1.29
1762880128.24658,1.52
1762880128.2528121,1.46
1762880128.2592971,1.36
1762880128.265333,1.57
1762880128.2716002,1.35
1762880128.27783,1.41
1762880128.284022,1.52
1762880128.290356,1.34
1762880128.296521,1.55
1762880128.302788,1.4
1762880128.309226,1.31
1762880128.315274,1.55
1762880128.321631,1.34
1762880128.327863,1.41
1762880128.3340049,1.48
1762880128.340288,1.31
1762880128.346582,1.55
1762880128.352768,1.47
1762880128.3592792,1.43
1762880128.365427,1.66
1762880128.371605,1.44
1762880128.377832,1.64
1762880128.384228,1.76
1762880128.39024,1.42
1762880128.396456,1.65
1762880128.402773,1.6
1762880128.409266,1.39
1762880128.415248,1.5
1762880128.421669,1.27
1762880128.427829,1.37
1762880128.434125,1.4
1762880128.440285,1.16
1762880128.446502,1.5
1762880128.452835,1.34
1762880128.459241,1.16
1762880128.465215,1.5
1762880128.4717891,1.3
1762880128.477848,1.34
1762880128.483986,1.45
1762880128.49027,1.22
1762880128.4964638,1.46
1762880128.5027552,1.42
1762880128.508951,1.31
1762880128.51522,1.52
1762880128.521481,1.27
1762880128.527732,1.37
1762880128.533977,1.57
1762880128.540373,1.45
1762880128.546464,2.02
1762880128.5528178,2.81
1762880128.559238,3.16
1762880128.5652611,3.17
1762880128.571625,3.17
1762880128.5785239,2.29
1762880128.584003,0.65
1762880128.590235,1.02
1762880128.596511,1.87
1762880128.6027951,1.41
1762880128.609232,1.07
1762880128.6153312,1.46
1762880128.621679,1.27
1762880128.627823,1.34
1762880128.633972,1.43
1762880128.640396,1.18
1762880128.6465018,1.42
1762880128.652674,1.4
1762880128.659235,1.3
1762880128.665313,1.51
1762880128.671508,1.28
1762880128.677778,1.4
1762880128.6839302,1.52
1762880128.6902149,1.25
1762880128.696449,1.52
1762880128.702755,1.46
1762880128.709116,1.32
1762880128.715272,1.62
1762880128.721504,1.44
1762880128.727736,1.48
1762880128.73399,1.58
1762880128.740196,1.34
1762880128.7465081,1.65
1762880128.7527108,1.62
1762880128.7597098,1.5
1762880128.76525,1.77
1762880128.771401,1.56
1762880128.777948,1.62
1762880128.7839959,1.77
1762880128.790154,1.62
1762880128.796437,1.82
1762880128.802767,1.73
1762880128.8089962,1.59
1762880128.815168,1.84
1762880128.821387,1.63
1762880128.82774,1.63
1762880128.833942,1.67
1762880128.84023,1.42
1762880128.846473,1.6
1762880128.8526652,1.46
1762880128.858988,1.26
1762880128.865144,1.53
1762880128.871453,1.33
1762880128.8777442,1.34
1762880128.8839161,1.39
1762880128.890398,1.2
1762880128.898651,1.5
1762880128.923863,1.42
1762880128.940387,1.26
1762880128.947636,1.48
1762880128.94777,1.27
1762880128.947882,1.36
1762880128.947995,1.47
1762880128.948849,1.24
1762880128.949873,1.51
1762880128.955528,1.42
1762880128.961132,1.29
1762880128.9652212,1.56
1762880128.971775,1.34
1762880128.977688,1.42
1762880128.984002,1.56
1762880128.990491,1.28
1762880128.9965801,1.52
1762880129.002694,1.49
1762880129.009164,1.35
1762880129.01526,1.57
1762880129.021541,1.34
1762880129.027641,1.42
1762880129.034039,1.59
1762880129.040195,1.35
1762880129.046402,1.52
1762880129.0526552,1.45
1762880129.059,1.34
1762880129.065154,1.6
1762880129.0713909,1.37
1762880129.077728,1.39
1762880129.083959,1.54
1762880129.090293,1.32
1762880129.096399,1.53
1762880129.102654,1.48
1762880129.109004,1.35
1762880129.115128,1.58
1762880129.121541,1.38
1762880129.127655,1.46
1762880129.1339579,1.65
1762880129.140639,1.47
1762880129.146471,1.69
1762880129.1526022,1.67
1762880129.1588328,1.58
1762880129.165174,1.83
1762880129.171442,1.59
1762880129.17777,1.64
1762880129.183955,1.75
1762880129.1901271,1.35
1762880129.1964061,1.51
1762880129.202677,1.47
1762880129.20887,1.3
1762880129.2151182,1.52
1762880129.221427,1.36
1762880129.2276459,1.4
1762880129.233805,1.49
1762880129.2401001,1.28
1762880129.2463171,1.53
1762880129.252566,1.45
1762880129.258997,1.27
1762880129.2650812,1.57
1762880129.2715058,1.38
1762880129.277691,1.38
1762880129.2838342,1.57
1762880129.2901618,1.35
1762880129.296319,1.54
1762880129.302936,1.48
1762880129.309422,1.33
1762880129.315111,1.66
1762880129.321398,1.71
1762880129.327704,2.12
1762880129.333876,3.05
1762880129.340045,3.16
1762880129.3463922,3.17
1762880129.352617,3.16
1762880129.358807,1.87
1762880129.3650439,0.8
1762880129.371307,1.37
1762880129.3775969,1.8
1762880129.383849,1.51
1762880129.390422,1.17
1762880129.396304,1.54
1762880129.4026492,1.49
1762880129.40889,1.3
1762880129.415021,1.56
1762880129.4215722,1.35
1762880129.427712,1.37
1762880129.4337862,1.59
1762880129.440114,1.36
1762880129.446486,1.55
1762880129.452567,1.52
1762880129.4591439,1.35
1762880129.465106,1.62
1762880129.471691,1.46
1762880129.477531,1.49
1762880129.483892,1.66
1762880129.4903092,1.39
1762880129.496382,1.61
1762880129.5025861,1.59
1762880129.50931,1.46
1762880129.5150342,1.78
1762880129.521719,1.58
1762880129.527601,1.59
1762880129.534135,1.78
1762880129.540041,1.58
1762880129.546392,1.81
1762880129.55269,1.8
1762880129.559239,1.61
1762880129.565046,1.91
1762880129.571317,1.76
1762880129.5776188,1.76
1762880129.5838552,1.92
1762880129.5901482,1.68
1762880129.596341,1.87
1762880129.602574,1.83
1762880129.608886,1.62
1762880129.615007,1.82
1762880129.6212869,1.58
1762880129.627556,1.52
1762880129.6337512,1.67
1762880129.6400378,1.4
1762880129.646305,1.55
1762880129.652549,1.49
1762880129.658742,1.29
1762880129.6650062,1.57
1762880129.6716218,1.39
1762880129.677551,1.36
1762880129.6837661,1.54
1762880129.690201,1.31
1762880129.696265,1.55
1762880129.702527,1.52
1762880129.708822,1.34
1762880129.715219,1.58
1762880129.7213361,1.38
1762880129.727548,1.44
1762880129.733949,1.63
1762880129.740084,1.37
1762880129.74622,1.58
1762880129.752526,1.55
1762880129.7589,1.35
1762880129.765019,1.64
1762880129.771198,1.48
1762880129.777664,1.48
1762880129.783881,1.62
1762880129.79004,1.38
1762880129.796279,1.6
1762880129.802489,1.59
1762880129.8089228,1.39
1762880129.815012,1.65
1762880129.8212469,1.48
1762880129.827824,1.48
1762880129.83408,1.64
1762880129.840054,1.39
1762880129.846288,1.62
1762880129.852503,1.6
1762880129.858819,1.38
1762880129.8649752,1.62
1762880129.8712142,1.48
1762880129.8774772,1.51
1762880129.88373,1.65
1762880129.890066,1.38
1762880129.896204,1.6
1762880129.902447,1.58
1762880129.9088252,1.39
1762880129.9149828,1.67
1762880129.9212968,1.49
1762880129.9276202,1.49
1762880129.933748,1.67
1762880129.940085,1.38
1762880129.946208,1.6
1762880129.952451,1.64
1762880129.9594371,1.45
1762880129.9649699,1.74
1762880129.971246,1.6
1762880129.977558,1.6
1762880129.9837482,1.81
1762880129.989965,1.67
1762880129.996172,1.87
1762880130.002529,1.79
1762880130.008853,1.54
1762880130.0149918,1.85
1762880130.021508,1.61
1762880130.02739,1.5
1762880130.033756,1.69
1762880130.0400078,1.44
1762880130.04616,1.61
1762880130.052532,1.56
1762880130.058857,1.34
1762880130.064893,1.64
1762880130.071604,1.49
1762880130.077465,1.49
1762880130.083748,1.68
1762880130.090128,1.42
1762880130.096233,1.59
1762880130.102417,1.6
1762880130.1092749,1.42
1762880130.1149912,1.72
1762880130.1212642,1.57
1762880130.127497,1.53
1762880130.134071,1.69
1762880130.140067,1.46
1762880130.146213,1.7
1762880130.152417,1.81
1762880130.15914,1.8
1762880130.1650171,2.69
1762880130.171196,3.16
1762880130.1774888,3.17
1762880130.183627,3.17
1762880130.189901,2.97
1762880130.196149,1.27
1762880130.2024372,1.09
1762880130.209762,1.74
1762880130.214884,1.92
1762880130.2211578,1.37
1762880130.2275,1.42
1762880130.233678,1.77
1762880130.2399192,1.42
1762880130.246211,1.57
1762880130.2524002,1.64
1762880130.258668,1.41
1762880130.2649012,1.68
1762880130.275551,1.57
1762880130.292135,1.54
1762880130.292335,1.69
1762880130.292512,1.48
1762880130.3020182,1.71
1762880130.316724,1.71
1762880130.32587,1.48
1762880130.3262,1.76
1762880130.326553,1.64
1762880130.3274739,1.59
1762880130.360638,1.82
1762880130.3613849,1.6
1762880130.361601,1.74
1762880130.3622432,1.81
1762880130.36373,1.65
1762880130.3649678,1.94
1762880130.3712142,1.8
1762880130.381404,1.75
1762880130.383638,1.97
1762880130.391593,1.78
1762880130.396131,1.97
1762880130.4023838,1.98
1762880130.4087381,1.73
1762880130.4149408,2.06
1762880130.421716,1.93
1762880130.4274392,1.83
1762880130.4336472,2.08
1762880130.4399428,1.78
1762880130.446101,1.88
1762880130.452351,1.88
1762880130.459187,1.6
1762880130.464851,1.82
1762880130.471156,1.63
1762880130.4773781,1.55
1762880130.483574,1.74
1762880130.489835,1.45
1762880130.496125,1.61
1762880130.502629,1.59
1762880130.508977,1.39
1762880130.5149171,1.76
1762880130.52123,1.55
1762880130.527352,1.46
1762880130.533582,1.72
1762880130.539853,1.48
1762880130.546068,1.62
1762880130.552564,1.65
1762880130.559129,1.43
1762880130.5647922,1.76
1762880130.571636,1.61
1762880130.5773609,1.52
1762880130.583539,1.76
1762880130.5899332,1.52
1762880130.596083,1.67
1762880130.602529,1.67
1762880130.608961,1.48
1762880130.6147861,1.8
1762880130.6211169,1.62
1762880130.627372,1.54
1762880130.633528,1.78
1762880130.6398551,1.48
1762880130.646101,1.69
1762880130.652329,1.73
1762880130.658762,1.47
1762880130.6648278,1.75
1762880130.6713002,1.58
1762880130.6773992,1.5
1762880130.6835442,1.75
1762880130.689864,1.51
1762880130.696141,1.62
1762880130.702344,1.66
1762880130.7087932,1.49
1762880130.714866,1.75
1762880130.721164,1.54
1762880130.727363,1.49
1762880130.733598,1.8
1762880130.740015,1.51
1762880130.746063,1.63
1762880130.752356,1.67
1762880130.758641,1.41
1762880130.76485,1.69
1762880130.771136,1.62
1762880130.777449,1.56
1762880130.783584,1.74
1762880130.790269,1.44
1762880130.796041,1.62
1762880130.802349,1.73
1762880130.8090382,1.51
1762880130.814819,1.71
1762880130.821117,1.52
1762880130.8273852,1.48
1762880130.8336298,1.81
1762880130.839989,1.58
1762880130.8460748,1.73
1762880130.852486,1.74
1762880130.858614,1.57
1762880130.864838,2.01
1762880130.8710961,1.81
1762880130.87736,1.6
1762880130.883517,1.88
1762880130.889808,1.63
1762880130.896044,1.72
1762880130.902442,1.66
1762880130.908648,1.38
1762880130.9147599,1.72
1762880130.92147,1.51
1762880130.927296,1.41
1762880130.933525,1.72
1762880130.939946,1.43
1762880130.946029,1.56
1762880130.9522712,1.61
1762880130.958534,1.34
1762880130.964761,1.67
1762880130.971095,1.54
1762880130.9772758,1.44
1762880130.983445,1.68
1762880130.989901,1.43
1762880130.995944,1.62
1762880131.002382,1.65
1762880131.008545,1.39
1762880131.0149179,1.72
1762880131.021014,1.63
1762880131.027277,1.67
1762880131.0334258,2.25
1762880131.039874,2.71
1762880131.0460212,3.17
1762880131.052272,3.17
1762880131.058542,3.17
1762880131.0647879,2.43
1762880131.07123,0.71
1762880131.0772989,1.23
1762880131.083509,2.06
1762880131.089909,1.4
1762880131.096009,1.37
1762880131.102389,1.62
1762880131.108736,1.37
1762880131.1147468,1.59
1762880131.121089,1.46
1762880131.127266,1.36
1762880131.133472,1.64
1762880131.1397839,1.42
1762880131.146006,1.54
1762880131.152268,1.58
1762880131.158628,1.34
1762880131.164738,1.67
1762880131.1724539,1.51
1762880131.1773021,1.42
1762880131.183517,1.74
1762880131.189883,1.44
1762880131.196022,1.56
1762880131.202369,1.67
1762880131.208997,1.44
1762880131.2147598,1.74
1762880131.220952,1.61
1762880131.2272372,1.53
1762880131.2334871,1.79
1762880131.2398121,1.55
1762880131.245945,1.73
1762880131.252328,1.86
1762880131.259248,1.57
1762880131.2647371,1.86
1762880131.2709398,1.77
1762880131.277217,1.7
1762880131.283489,1.97
1762880131.289752,1.66
1762880131.295948,1.81
1762880131.302357,1.88
1762880131.3088288,1.6
1762880131.314757,1.88
1762880131.320971,1.66
1762880131.327465,1.49
1762880131.3334668,1.76
1762880131.3397691,1.43
1762880131.3460102,1.47
1762880131.352203,1.52
1762880131.358477,1.27
1762880131.36472,1.54
1762880131.371009,1.37
1762880131.377224,1.24
1762880131.383488,1.53
1762880131.389867,1.27
1762880131.3959308,1.41
1762880131.4024699,1.47
1762880131.408426,1.22
1762880131.4147189,1.52
1762880131.4209259,1.35
1762880131.427187,1.26
1762880131.433372,1.58
1762880131.4397068,1.28
1762880131.445926,1.41
1762880131.4521768,1.52
1762880131.458544,1.23
1762880131.464638,1.52
1762880131.470984,1.41
1762880131.477211,1.34
1762880131.483417,1.59
1762880131.4897459,1.27
1762880131.4959328,1.42
1762880131.502218,1.52
1762880131.5096178,1.25
1762880131.5147069,1.55
1762880131.54691,1.43
1762880131.5482152,1.3
1762880131.548438,1.55
1762880131.5486221,1.3
1762880131.548782,1.42
1762880131.552127,1.53
1762880131.559638,1.23
1762880131.564662,1.53
1762880131.570997,1.4
1762880131.577441,1.28
1762880131.583463,1.6
1762880131.58981,1.31
1762880131.596023,1.41
1762880131.602175,1.49
1762880131.608511,1.25
1762880131.614609,1.55
1762880131.620929,1.41
1762880131.6272929,1.3
1762880131.633305,1.57
1762880131.639671,1.29
1762880131.645868,1.41
1762880131.6521118,1.52
1762880131.65841,1.26
1762880131.664603,1.57
1762880131.670917,1.42
1762880131.677142,1.31
1762880131.683316,1.63
1762880131.689703,1.34
1762880131.6958442,1.45
1762880131.702111,1.55
1762880131.7085161,1.37
1762880131.7145972,1.74
1762880131.720901,1.54
1762880131.742812,1.4
1762880131.74303,1.85
1762880131.7431848,1.59
1762880131.800651,1.59
1762880131.801162,1.63
1762880131.801365,1.42
1762880131.8022778,1.68
1762880131.802561,1.46
1762880131.8027341,1.3
1762880131.803194,1.59
1762880131.803328,1.32
1762880131.803518,1.41
1762880131.803649,1.52
1762880131.808498,1.24
1762880131.814682,1.52
1762880131.8209028,1.43
1762880131.827086,1.34
1762880131.833375,1.64
1762880131.839673,1.31
1762880131.845941,1.43
1762880131.8521779,1.59
1762880131.8585138,1.32
1762880131.864833,1.61
1762880131.871597,1.51
1762880131.877184,1.37
1762880131.883264,1.69
1762880131.8896792,1.52
1762880131.8960268,1.96
1762880131.90223,2.83
1762880131.90841,3.16
1762880131.914616,3.17
1762880131.9210439,3.17
1762880131.92718,2.5
1762880131.9333189,0.96
1762880131.9395971,1.07
1762880131.945826,1.76
1762880131.9521,1.66
1762880131.958358,1.14
1762880131.9645922,1.49
1762880131.970918,1.48
1762880131.9771252,1.29
1762880131.98327,1.54
1762880131.990103,1.31
1762880131.9958751,1.33
1762880132.002123,1.5
1762880132.00849,1.25
1762880132.0146601,1.3
1762880132.0208378,1.44
1762880132.0271318,1.3
1762880132.033331,1.37
1762880132.039619,1.35
1762880132.045962,1.34
1762880132.0521889,1.5
1762880132.058357,1.35
1762880132.064553,1.43
1762880132.0708249,1.55
1762880132.077068,1.37
1762880132.083317,1.49
1762880132.089539,1.52
1762880132.0957708,1.44
1762880132.102091,1.55
1762880132.108348,1.53
1762880132.114678,1.64
1762880132.121011,1.7
1762880132.127177,1.56
1762880132.133259,1.68
1762880132.139565,1.64
1762880132.1458728,1.66
1762880132.152055,1.82
1762880132.158517,1.66
1762880132.164533,1.65
1762880132.170808,1.78
1762880132.177056,1.6
1762880132.1832478,1.66
1762880132.189662,1.6
1762880132.195731,1.46
1762880132.2020428,1.53
1762880132.208309,1.41
1762880132.2144861,1.46
1762880132.220816,1.44
1762880132.227009,1.3
1762880132.233361,1.48
1762880132.2394948,1.4
1762880132.245803,1.3
1762880132.252096,1.47
1762880132.2583418,1.35
1762880132.2646341,1.39
1762880132.271143,1.45
1762880132.277099,1.31
1762880132.28332,1.45
1762880132.289563,1.4
1762880132.295913,1.36
1762880132.302059,1.5
1762880132.308295,1.36
1762880132.314671,1.42
1762880132.3208032,1.56
1762880132.3270679,1.4
1762880132.333368,1.46
1762880132.3395069,1.43
1762880132.34582,1.42
1762880132.3520992,1.57
1762880132.35829,1.4
1762880132.3645172,1.49
1762880132.37099,1.55
1762880132.376989,1.38
1762880132.383277,1.52
1762880132.389649,1.49
1762880132.395811,1.43
1762880132.402015,1.53
1762880132.408403,1.39
1762880132.4146,1.5
1762880132.420796,1.58
1762880132.427007,1.41
1762880132.433245,1.48
1762880132.439749,1.46
1762880132.4458508,1.45
1762880132.451993,1.6
1762880132.458343,1.45
1762880132.4645472,1.51
1762880132.4709141,1.54
1762880132.477081,1.41
1762880132.483443,1.56
1762880132.4895308,1.49
1762880132.495682,1.48
1762880132.501976,1.61
1762880132.508258,1.46
1762880132.514718,1.63
1762880132.5209868,1.71
1762880132.527023,1.56
1762880132.533281,1.74
1762880132.539545,1.74
1762880132.5457,1.76
1762880132.5519192,1.8
1762880132.558178,1.56
1762880132.56439,1.72
1762880132.570783,1.67
1762880132.576854,1.44
1762880132.583343,1.58
1762880132.589518,1.47
1762880132.59569,1.42
1762880132.601969,1.55
1762880132.6083589,1.42
1762880132.6143749,1.53
1762880132.620739,1.55
1762880132.626952,1.41
1762880132.633246,1.57
1762880132.639889,1.43
1762880132.6457138,1.47
1762880132.6518998,1.62
1762880132.658143,1.45
1762880132.6643908,1.57
1762880132.670754,1.6
1762880132.676859,1.46
1762880132.683151,1.61
1762880132.689534,1.51
1762880132.6958442,1.64
1762880132.701988,2.02
1762880132.708182,2.43
1762880132.714529,3.17
1762880132.720696,3.17
1762880132.726913,3.17
1762880132.73322,3.14
1762880132.73963,1.36
1762880132.745675,0.83
1762880132.752007,1.85
1762880132.7581701,1.7
1762880132.7644758,1.41
1762880132.770617,1.47
1762880132.7768629,1.47
1762880132.783181,1.64
1762880132.7895339,1.42
1762880132.795583,1.47
1762880132.8019788,1.63
1762880132.808157,1.37
1762880132.814594,1.58
1762880132.82076,1.63
1762880132.826974,1.44
1762880132.8332329,1.65
1762880132.839435,1.53
1762880132.845626,1.54
1762880132.851925,1.69
1762880132.858232,1.48
1762880132.864528,1.63
1762880132.870749,1.64
1762880132.876936,1.52
1762880132.883191,1.75
1762880132.889429,1.6
1762880132.895802,1.64
1762880132.901958,1.81
1762880132.9082398,1.57
1762880132.9143739,1.81
1762880132.9206588,1.85
1762880132.926838,1.67
1762880132.933075,1.94
1762880132.9394062,1.79
1762880132.945836,1.77
1762880132.951943,1.95
1762880132.958188,1.73
1762880132.9644852,1.91
1762880132.970757,1.91
1762880132.9769049,1.71
1762880132.983169,1.94
1762880132.98945,1.74
1762880132.995651,1.65
1762880133.0018802,1.78
1762880133.00809,1.48
1762880133.0143669,1.61
1762880133.02096,1.57
1762880133.026923,1.33
1762880133.0331578,1.59
1762880133.039521,1.45
1762880133.04571,1.39
1762880133.051882,1.58
1762880133.058222,1.35
1762880133.0643032,1.52
1762880133.070693,1.52
1762880133.077556,1.32
1762880133.0831108,1.57
1762880133.089489,1.41
1762880133.095638,1.41
1762880133.10187,1.62
1762880133.108062,1.33
1762880133.114323,1.49
1762880133.120702,1.58
1762880133.1268108,1.39
1762880133.1331048,1.6
1762880133.1394508,1.49
1762880133.145538,1.52
1762880133.152041,1.64
1762880133.1580758,1.39
1762880133.164278,1.6
1762880133.170666,1.6
1762880133.1768498,1.37
1762880133.183011,1.65
1762880133.189333,1.46
1762880133.195541,1.45
1762880133.201901,1.68
1762880133.208092,1.44
1762880133.214337,1.58
1762880133.2211158,1.57
1762880133.2268438,1.38
1762880133.233114,1.64
1762880133.23933,1.47
1762880133.2455301,1.45
1762880133.251756,1.62
1762880133.257928,1.37
1762880133.264263,1.53
1762880133.270556,1.56
1762880133.27683,1.43
1762880133.283081,1.66
1762880133.289452,1.43
1762880133.295517,1.44
1762880133.301882,1.67
1762880133.3121028,1.42
1762880133.3319008,1.55
1762880133.3344839,1.56
1762880133.3346539,1.42
1762880133.334798,1.68
1762880133.3511062,1.48
1762880133.351284,1.44
1762880133.3558002,1.61
1762880133.359627,1.46
1762880133.391073,1.73
1762880133.391325,1.7
1762880133.391585,1.49
1762880133.391754,1.85
1762880133.3919308,1.73
1762880133.395603,1.65
1762880133.402424,1.78
1762880133.409488,1.56
1762880133.414347,1.73
1762880133.4241002,1.62
1762880133.426961,1.35
1762880133.433214,1.61
1762880133.441855,1.44
1762880133.445819,1.38
1762880133.451936,1.63
1762880133.4581,1.38
1762880133.4643352,1.53
1762880133.470758,1.52
1762880133.4768991,1.3
1762880133.4831371,1.6
1762880133.489385,1.46
1762880133.495578,1.45
1762880133.5018969,1.68
1762880133.508058,1.39
1762880133.514247,1.54
1762880133.5205178,1.58
1762880133.526952,1.37
1762880133.5329862,1.65
1762880133.539405,1.54
1762880133.5457852,1.62
1762880133.551809,2.05
1762880133.5580401,2.46
1762880133.5643232,3.17
1762880133.570663,3.17
1762880133.57691,3.17
1762880133.583039,2.97
1762880133.589796,0.98
1762880133.595745,0.91
1762880133.60178,1.95
1762880133.608036,1.55
1762880133.614317,1.39
1762880133.620846,1.51
1762880133.62683,1.37
1762880133.632969,1.58
1762880133.639423,1.42
1762880133.645919,1.4
1762880133.65183,1.58
1762880133.658022,1.33
1762880133.664491,1.56
1762880133.6706638,1.6
1762880133.676882,1.33
1762880133.6831129,1.6
1762880133.6894531,1.5
1762880133.6956842,1.46
1762880133.701772,1.64
1762880133.7080472,1.42
1762880133.7143838,1.6
1762880133.72056,1.65
1762880133.726874,1.46
1762880133.733068,1.69
1762880133.739681,1.57
1762880133.745777,1.6
1762880133.7519062,1.79
1762880133.7581599,1.53
1762880133.764365,1.73
1762880133.7705688,1.84
1762880133.776831,1.63
1762880133.783129,1.88
1762880133.789259,1.77
1762880133.795574,1.74
1762880133.801779,1.93
1762880133.808012,1.71
1762880133.8143911,1.87
1762880133.820559,1.93
1762880133.826795,1.65
1762880133.8329978,1.88
1762880133.839232,1.75
1762880133.845729,1.62
1762880133.8518121,1.74
1762880133.858013,1.47
1762880133.8642712,1.59
1762880133.870632,1.56
1762880133.8768792,1.31
1762880133.882994,1.57
1762880133.889722,1.4
1762880133.8957288,1.35
1762880133.901765,1.57
1762880133.9080188,1.31
1762880133.914346,1.45
1762880133.9207418,1.51
1762880133.926741,1.26
1762880133.933053,1.57
1762880133.93974,1.46
1762880133.945413,1.36
1762880133.951715,1.59
1762880133.958004,1.37
1762880133.964371,1.5
1762880133.97051,1.53
1762880133.976937,1.35
1762880133.98294,1.63
1762880133.989722,1.44
1762880133.9955132,1.41
1762880134.001756,1.68
1762880134.00792,1.4
1762880134.014451,1.53
1762880134.0207841,1.6
1762880134.026643,1.35
1762880134.03302,1.63
1762880134.039837,1.5
1762880134.045474,1.42
1762880134.0518022,1.64
1762880134.058008,1.41
1762880134.0642529,1.54
1762880134.070685,1.59
1762880134.0767832,1.37
1762880134.0829499,1.65
1762880134.0897532,1.49
1762880134.095689,1.41
1762880134.101683,1.64
1762880134.108072,1.4
1762880134.114302,1.54
1762880134.120619,1.58
1762880134.1269262,1.37
1762880134.133182,1.63
1762880134.139256,1.47
1762880134.145566,1.42
1762880134.151716,1.67
1762880134.157904,1.41
1762880134.1641128,1.54
1762880134.170462,1.6
1762880134.176699,1.38
1762880134.1827881,1.64
1762880134.189186,1.52
1762880134.1954849,1.44
1762880134.2016041,1.61
1762880134.207917,1.4
1762880134.214232,1.58
1762880134.220572,1.66
1762880134.226874,1.43
1762880134.233006,1.71
1762880134.2392142,1.66
1762880134.245423,1.6
1762880134.251698,1.83
1762880134.257966,1.63
1762880134.264201,1.78
1762880134.2705338,1.77
1762880134.276575,1.51
1762880134.2829142,1.78
1762880134.289664,1.57
1762880134.2953322,1.41
1762880134.301675,1.63
1762880134.307955,1.41
1762880134.314307,1.53
1762880134.3204212,1.57
1762880134.3265972,1.3
1762880134.332813,1.6
1762880134.339124,1.5
1762880134.345504,1.41
1762880134.3516119,1.63
1762880134.3579168,1.39
1762880134.364172,1.52
1762880134.37041,1.6
1762880134.376652,1.39
1762880134.382817,1.64
1762880134.389174,1.51
1762880134.395328,1.47
1762880134.40164,1.69
1762880134.407843,1.4
1762880134.414111,1.65
1762880134.420395,1.94
1762880134.426537,2.09
1762880134.432891,3.16
1762880134.439109,3.17
1762880134.445416,3.17
1762880134.451637,3.16
1762880134.45776,1.51
1762880134.464053,0.82
1762880134.470432,1.71
1762880134.4766989,1.64
1762880134.482871,1.55
1762880134.489148,1.37
1762880134.4953332,1.4
1762880134.501724,1.66
1762880134.507893,1.33
1762880134.5143611,1.47
1762880134.52045,1.61
1762880134.52673,1.38
1762880134.532882,1.6
1762880134.539082,1.52
1762880134.545242,1.42
1762880134.551574,1.65
1762880134.55802,1.44
1762880134.564105,1.55
1762880134.570368,1.61
1762880134.576551,1.4
1762880134.582904,1.72
1762880134.589181,1.61
1762880134.5952902,1.47
1762880134.601654,1.74
1762880134.607876,1.54
1762880134.614228,1.64
1762880134.620446,1.74
1762880134.626674,1.55
1762880134.632982,1.82
1762880134.639198,1.71
1762880134.645358,1.62
1762880134.651624,1.94
1762880134.657896,1.74
1762880134.6640372,1.82
1762880134.67044,1.91
1762880134.6765199,1.69
1762880134.682953,2.0
1762880134.689161,1.86
1762880134.695403,1.69
1762880134.701621,1.96
1762880134.7078102,1.71
1762880134.714108,1.74
1762880134.720478,1.75
1762880134.7268,1.46
1762880134.732831,1.71
1762880134.739254,1.55
1762880134.745331,1.38
1762880134.751572,1.61
1762880134.7577658,1.32
1762880134.764014,1.46
1762880134.770624,1.6
1762880134.776567,1.32
1762880134.782889,1.55
1762880134.789183,1.42
1762880134.7953951,1.36
1762880134.801666,1.61
1762880134.807853,1.35
1762880134.8141801,1.46
1762880134.820504,1.56
1762880134.826797,1.31
1762880134.832999,1.59
1762880134.8396852,1.51
1762880134.845302,1.38
1762880134.851625,1.62
1762880134.857972,1.4
1762880134.864032,1.53
1762880134.870307,1.64
1762880134.876678,1.35
1762880134.882774,1.63
1762880134.8892522,1.52
1762880134.895433,1.42
1762880134.9015522,1.66
1762880134.907754,1.42
1762880134.913995,1.53
1762880134.920417,1.62
1762880134.926543,1.35
1762880134.932862,1.64
1762880134.939069,1.54
1762880134.945191,1.4
1762880134.951541,1.62
1762880134.9577038,1.41
1762880134.964,1.54
1762880134.9703581,1.63
1762880134.976397,1.34
1762880134.982662,1.62
1762880134.9891279,1.54
1762880134.995286,1.41
1762880135.00256,1.67
1762880135.0076811,1.41
1762880135.013912,1.52
1762880135.020554,1.64
1762880135.026439,1.35
1762880135.032713,1.61
1762880135.05661,1.56
1762880135.0736818,1.42
1762880135.0833201,1.66
1762880135.083463,1.44
1762880135.083576,1.53
1762880135.096732,1.64
1762880135.099943,1.36
1762880135.113646,1.62
1762880135.1143901,1.57
1762880135.114701,1.44
1762880135.1151009,1.66
1762880135.115307,1.42
1762880135.1154912,1.56
1762880135.120241,1.69
1762880135.1298208,1.4
1762880135.139404,1.65
1762880135.139658,1.66
1762880135.145182,1.56
1762880135.156197,1.77
1762880135.157832,1.61
1762880135.1639712,1.79
1762880135.170221,1.85
1762880135.176455,1.49
1762880135.1827772,1.76
1762880135.189025,1.72
1762880135.195161,1.47
1762880135.201544,1.66
1762880135.207867,1.44
1762880135.2140281,1.5
1762880135.220211,1.61
1762880135.2264352,1.36
1762880135.232671,1.63
1762880135.238913,1.53
1762880135.245258,1.37
1762880135.251445,1.65
1762880135.257705,1.44
1762880135.263937,1.5
1762880135.270256,1.62
1762880135.276581,1.37
1762880135.282629,1.63
1762880135.288984,1.56
1762880135.2951,1.44
1762880135.301468,1.72
1762880135.3077602,1.47
1762880135.3138828,1.51
1762880135.320211,1.75
1762880135.3264241,1.74
1762880135.332602,2.58
1762880135.338869,3.16
1762880135.345182,3.17
1762880135.351427,3.17
1762880135.3576162,2.92
1762880135.363969,1.11
1762880135.370483,1.07
1762880135.376411,1.65
1762880135.382731,1.84
1762880135.388907,1.41
1762880135.395189,1.3
1762880135.401424,1.68
1762880135.4076118,1.44
1762880135.4139001,1.47
1762880135.420146,1.61
1762880135.426502,1.34
1762880135.432627,1.58
1762880135.438875,1.57
1762880135.445152,1.42
1762880135.451396,1.63
1762880135.4576619,1.42
1762880135.463862,1.56
1762880135.4702091,1.71
1762880135.476437,1.39
1762880135.482697,1.66
1762880135.488968,1.62
1762880135.49516,1.47
1762880135.501503,1.76
1762880135.507607,1.55
1762880135.513917,1.62
1762880135.520118,1.81
1762880135.5264,1.54
1762880135.532655,1.76
1762880135.5388858,1.74
1762880135.5452302,1.66
1762880135.551664,1.96
1762880135.557611,1.71
1762880135.5640461,1.79
1762880135.570262,1.96
1762880135.5763159,1.67
1762880135.582638,1.92
1762880135.5889862,1.9
1762880135.595186,1.74
1762880135.6014452,2.0
1762880135.607523,1.74
1762880135.6137972,1.76
1762880135.620466,1.86
1762880135.626417,1.52
1762880135.632621,1.72
1762880135.638848,1.61
1762880135.645094,1.4
1762880135.651329,1.65
1762880135.657744,1.41
1762880135.663858,1.42
1762880135.670151,1.58
1762880135.676333,1.31
1762880135.6826,1.53
1762880135.6889331,1.5
1762880135.695145,1.33
1762880135.701443,1.6
1762880135.707644,1.39
1762880135.713928,1.46
1762880135.720813,1.61
1762880135.726361,1.31
1762880135.732783,1.55
1762880135.739261,1.52
1762880135.74513,1.39
1762880135.751461,1.68
1762880135.7576041,1.4
1762880135.764098,1.45
1762880135.770158,1.65
1762880135.776632,1.38
1762880135.782729,1.59
1762880135.7888682,1.57
1762880135.7954078,1.4
1762880135.801419,1.66
1762880135.807585,1.46
1762880135.8140612,1.52
1762880135.820208,1.65
1762880135.826399,1.36
1762880135.8326468,1.64
1762880135.838882,1.55
1762880135.84529,1.35
1762880135.8514318,1.67
1762880135.857803,1.48
1762880135.8638852,1.5
1762880135.870904,1.65
1762880135.8763468,1.38
1762880135.882605,1.61
1762880135.8889458,1.51
1762880135.895128,1.36
1762880135.901431,1.69
1762880135.907528,1.48
1762880135.914058,1.5
1762880135.920584,1.64
1762880135.926521,1.35
1762880135.932781,1.6
1762880135.9392781,1.58
1762880135.945125,1.39
1762880135.95137,1.67
1762880135.957584,1.46
1762880135.963902,1.49
1762880135.9702022,1.66
1762880135.9764302,1.39
1762880135.9826639,1.63
1762880135.9893608,1.61
1762880135.9950771,1.45
1762880136.001332,1.75
1762880136.0075169,1.57
1762880136.014069,1.6
1762880136.021536,1.81
1762880136.026463,1.62
1762880136.03251,1.82
1762880136.038956,1.67
1762880136.0450728,1.54
1762880136.0514371,1.85
1762880136.057696,1.5
1762880136.0637481,1.46
1762880136.0702238,1.65
1762880136.076406,1.37
1762880136.082562,1.58
1762880136.0888388,1.54
1762880136.0949912,1.35
1762880136.101526,1.66
1762880136.1077619,1.41
1762880136.113896,1.45
1762880136.120053,1.66
1762880136.1263208,1.32
1762880136.132386,1.58
1762880136.138794,1.6
1762880136.1450438,1.38
1762880136.1513731,1.64
1762880136.157689,1.46
1762880136.163768,1.52
1762880136.171468,1.7
1762880136.176349,1.46
1762880136.182452,1.81
1762880136.1887171,2.11
1762880136.195018,2.64
1762880136.20137,3.17
1762880136.207391,3.17
1762880136.213749,3.17
1762880136.2201018,2.71
1762880136.226397,0.79
1762880136.2324421,1.29
1762880136.238731,1.88
1762880136.244962,1.43
1762880136.251255,1.5
1762880136.257527,1.41
1762880136.263693,1.47
1762880136.270016,1.59
1762880136.2763252,1.3
1762880136.282593,1.55
1762880136.2888598,1.56
1762880136.295073,1.34
1762880136.3014898,1.64
1762880136.307486,1.46
1762880136.313751,1.45
1762880136.32009,1.67
1762880136.326486,1.4
1762880136.332607,1.6
1762880136.338837,1.6
1762880136.3450181,1.41
1762880136.351585,1.74
1762880136.3574882,1.55
1762880136.363889,1.53
1762880136.3700402,1.75
1762880136.376457,1.5
1762880136.3826501,1.71
1762880136.3887548,1.71
1762880136.394999,1.54
1762880136.401313,1.88
1762880136.4073799,1.69
1762880136.4138398,1.7
1762880136.420094,1.94
1762880136.426236,1.65
1762880136.432559,1.89
1762880136.438723,1.9
1762880136.445077,1.66
1762880136.451272,1.98
1762880136.457435,1.77
1762880136.463604,1.76
1762880136.470185,1.93
1762880136.476199,1.58
1762880136.482431,1.76
1762880136.488765,1.69
1762880136.495049,1.4
1762880136.501285,1.69
1762880136.507494,1.46
1762880136.5136588,1.41
1762880136.520024,1.59
1762880136.5262961,1.28
1762880136.532717,1.52
1762880136.5389938,1.53
1762880136.544981,1.28
1762880136.5513291,1.56
1762880136.5574028,1.37
1762880136.563645,1.39
1762880136.5699809,1.6
1762880136.576302,1.29
1762880136.5823932,1.49
1762880136.588841,1.5
1762880136.595099,1.33
1762880136.6012092,1.62
1762880136.607436,1.42
1762880136.613877,1.43
1762880136.620637,1.67
1762880136.62621,1.36
1762880136.632378,1.58
1762880136.6386719,1.59
1762880136.64508,1.34
1762880136.6512241,1.66
1762880136.657602,1.48
1762880136.6638951,1.45
1762880136.670018,1.65
1762880136.676354,1.35
1762880136.682482,1.56
1762880136.6887648,1.59
1762880136.694905,1.36
1762880136.70124,1.65
1762880136.707475,1.47
1762880136.713686,1.42
1762880136.720022,1.63
1762880136.7262442,1.38
1762880136.732339,1.59
1762880136.738632,1.56
1762880136.744928,1.34
1762880136.75123,1.66
1762880136.7573068,1.47
1762880136.763577,1.4
1762880136.770425,1.63
1762880136.812414,1.38
1762880136.824724,1.59
1762880136.8248289,1.57
1762880136.8256829,1.31
1762880136.8258188,1.65
1762880136.825944,1.49
1762880136.826862,1.46
1762880136.8271291,1.71
1762880136.8297112,1.48
1762880136.844104,1.67
1762880136.8472252,1.65
1762880136.847989,1.51
1762880136.851114,1.95
1762880136.861053,1.73
1762880136.863612,1.55
1762880136.869955,1.78
1762880136.876076,1.55
1762880136.882284,1.61
1762880136.88868,1.58
1762880136.8948622,1.35
1762880136.901165,1.6
1762880136.9075022,1.4
1762880136.9136572,1.36
1762880136.920938,1.62
1762880136.926157,1.34
1762880136.932286,1.52
1762880136.938688,1.55
1762880136.944861,1.31
1762880136.951164,1.61
1762880136.957336,1.44
1762880136.9635851,1.42
1762880136.9704478,1.64
1762880136.97607,1.34
1762880136.982334,1.53
1762880136.988459,1.6
1762880136.9947991,1.38
1762880137.00107,1.65
1762880137.007284,1.56
1762880137.013482,1.73
1762880137.019943,2.47
1762880137.0260658,3.06
1762880137.032247,3.17
1762880137.0385642,3.17
1762880137.044721,3.16
1762880137.05112,1.85
1762880137.05728,0.67
1762880137.0635378,1.47
1762880137.069833,1.96
1762880137.076158,1.25
1762880137.0823302,1.4
1762880137.088555,1.6
1762880137.09483,1.31
1762880137.1011379,1.55
1762880137.10729,1.41
1762880137.1135628,1.37
1762880137.1203232,1.63
1762880137.1260889,1.36
1762880137.132233,1.52
1762880137.138551,1.55
1762880137.144873,1.31
1762880137.151194,1.66
1762880137.1573079,1.51
1762880137.163556,1.45
1762880137.170439,1.65
1762880137.1760561,1.39
1762880137.182278,1.66
1762880137.188522,1.69
1762880137.194732,1.41
1762880137.201086,1.73
1762880137.207435,1.63
1762880137.213496,1.57
1762880137.2199,1.82
1762880137.226054,1.55
1762880137.2322419,1.75
1762880137.238616,1.85
1762880137.244787,1.59
1762880137.2510378,1.89
1762880137.25724,1.78
1762880137.263556,1.75
1762880137.2698188,1.97
1762880137.276035,1.7
1762880137.28236,1.91
1762880137.288448,1.95
1762880137.294718,1.6
