timestamp,ecg_value
1762880051.171732,1.78
1762880051.178047,1.79
1762880051.184072,1.81
1762880051.19029,1.83
1762880051.196665,1.85
1762880051.202728,1.85
1762880051.2091389,1.85
1762880051.215328,1.83
1762880051.221466,1.81
1762880051.227694,1.8
1762880051.233946,1.81
1762880051.2401469,1.83
1762880051.246391,1.85
1762880051.2527602,1.88
1762880051.258995,1.88
1762880051.265307,1.88
1762880051.271523,1.86
1762880051.2777002,1.86
1762880051.284037,1.88
1762880051.2902348,1.82
1762880051.2964768,1.82
1762880051.302799,1.78
1762880051.308919,1.68
1762880051.3152409,1.65
1762880051.321502,1.55
1762880051.32795,1.48
1762880051.3340101,1.53
1762880051.340171,1.48
1762880051.3465102,1.45
1762880051.352937,1.42
1762880051.3590772,1.42
1762880051.365257,1.46
1762880051.3715,1.44
1762880051.3777978,1.48
1762880051.384004,1.48
1762880051.390145,1.41
1762880051.3965771,1.44
1762880051.403163,1.5
1762880051.408992,1.49
1762880051.415234,1.48
1762880051.421616,1.44
1762880051.427712,1.46
1762880051.4338508,1.55
1762880051.440128,1.51
1762880051.4464881,1.49
1762880051.452755,1.49
1762880051.475465,1.5
1762880051.4769862,1.54
1762880051.478261,1.5
1762880051.478369,1.53
1762880051.497747,1.59
1762880051.4979148,1.53
1762880051.51244,1.53
1762880051.5125911,1.56
1762880051.5127249,1.51
1762880051.526874,1.53
1762880051.526995,1.55
1762880051.527678,1.53
1762880051.533965,1.52
1762880051.540085,1.5
1762880051.546517,1.52
1762880051.5526772,1.52
1762880051.559105,1.52
1762880051.565131,1.53
1762880051.571449,1.52
1762880051.5776372,1.54
1762880051.5839748,1.56
1762880051.590202,1.53
1762880051.596467,1.54
1762880051.602578,1.53
1762880051.608791,1.48
1762880051.61505,1.51
1762880051.621442,1.55
1762880051.627656,1.56
1762880051.633887,1.54
1762880051.640146,1.52
1762880051.64658,1.58
1762880051.6525939,1.57
1762880051.658845,1.59
1762880051.665091,1.65
1762880051.671521,1.63
1762880051.677682,1.66
1762880051.683897,1.73
1762880051.6901271,1.76
1762880051.6964831,1.79
1762880051.702595,1.67
1762880051.709137,1.67
1762880051.715146,1.7
1762880051.721426,1.57
1762880051.727617,1.52
1762880051.7338922,1.53
1762880051.7401211,1.51
1762880051.746439,1.5
1762880051.752639,1.47
1762880051.758912,1.49
1762880051.765101,1.51
1762880051.771522,1.49
1762880051.777645,1.52
1762880051.783823,1.52
1762880051.790123,1.51
1762880051.796384,1.52
1762880051.802644,1.52
1762880051.808855,1.51
1762880051.815047,1.55
1762880051.821402,1.56
1762880051.827592,1.53
1762880051.8338199,1.52
1762880051.8400881,1.6
1762880051.846348,1.77
1762880051.852739,2.06
1762880051.858751,2.83
1762880051.8650339,3.17
1762880051.871426,3.17
1762880051.87763,3.17
1762880051.884091,2.61
1762880051.890325,0.89
1762880051.89637,1.23
1762880051.902658,1.81
1762880051.908907,1.56
1762880051.9150238,1.39
1762880051.921477,1.48
1762880051.9276521,1.5
1762880051.933933,1.47
1762880051.9400609,1.46
1762880051.946283,1.47
1762880051.952716,1.5
1762880051.959161,1.52
1762880051.965068,1.53
1762880051.971348,1.5
1762880051.9776871,1.48
1762880051.983914,1.54
1762880051.990056,1.57
1762880051.996375,1.59
1762880052.0026581,1.53
1762880052.008759,1.54
1762880052.015079,1.63
1762880052.021333,1.59
1762880052.02757,1.6
1762880052.033955,1.62
1762880052.040042,1.63
1762880052.0464041,1.66
1762880052.052803,1.68
1762880052.0588999,1.68
1762880052.0650299,1.74
1762880052.0713441,1.76
1762880052.0778399,1.8
1762880052.083831,1.83
1762880052.090027,1.79
1762880052.096277,1.88
1762880052.102761,1.89
1762880052.108843,1.85
1762880052.115018,1.9
1762880052.121253,1.84
1762880052.12762,1.83
1762880052.133829,1.87
1762880052.1400561,1.77
1762880052.146328,1.71
1762880052.152895,1.67
1762880052.158847,1.6
1762880052.16499,1.56
1762880052.1713312,1.52
1762880052.177587,1.47
1762880052.1837828,1.48
1762880052.1901,1.44
1762880052.196219,1.44
1762880052.202971,1.45
1762880052.208744,1.4
1762880052.2151182,1.45
1762880052.221308,1.46
1762880052.2276092,1.43
1762880052.2340539,1.47
1762880052.2401018,1.41
1762880052.246228,1.47
1762880052.252936,1.52
1762880052.258956,1.48
1762880052.265013,1.48
1762880052.271328,1.47
1762880052.2774699,1.47
1762880052.2837398,1.51
1762880052.289933,1.49
1762880052.29625,1.52
1762880052.3029912,1.5
1762880052.308772,1.49
1762880052.3149881,1.54
1762880052.321413,1.53
1762880052.327584,1.52
1762880052.333716,1.51
1762880052.339951,1.48
1762880052.346379,1.51
1762880052.3524349,1.51
1762880052.358757,1.51
1762880052.364934,1.54
1762880052.371285,1.48
1762880052.3775291,1.47
1762880052.383801,1.52
1762880052.390087,1.52
1762880052.396269,1.52
1762880052.402494,1.49
1762880052.408816,1.48
1762880052.415016,1.54
1762880052.421259,1.5
1762880052.4274619,1.46
1762880052.433739,1.51
1762880052.439996,1.52
1762880052.4463072,1.51
1762880052.452469,1.57
1762880052.459413,1.61
1762880052.464993,1.63
1762880052.471699,1.61
1762880052.477501,1.72
1762880052.4838111,1.79
1762880052.4901462,1.68
1762880052.496232,1.65
1762880052.5024981,1.71
1762880052.5089438,1.61
1762880052.514975,1.5
1762880052.5212631,1.44
1762880052.527466,1.49
1762880052.533768,1.51
1762880052.540208,1.44
1762880052.546208,1.44
1762880052.552503,1.45
1762880052.558903,1.45
1762880052.565069,1.48
1762880052.571251,1.44
1762880052.5774562,1.45
1762880052.583787,1.49
1762880052.5899038,1.48
1762880052.596195,1.49
1762880052.602554,1.48
1762880052.60886,1.48
1762880052.614963,1.52
1762880052.621349,1.51
1762880052.627456,1.52
1762880052.633736,1.57
1762880052.639919,1.66
1762880052.6462872,2.04
1762880052.652503,2.84
1762880052.6587892,3.17
1762880052.664961,3.17
1762880052.671273,3.17
1762880052.6774762,2.51
1762880052.683795,0.84
1762880052.690185,1.21
1762880052.69615,1.81
1762880052.702816,1.56
1762880052.7088058,1.31
1762880052.714864,1.43
1762880052.7213151,1.48
1762880052.727464,1.41
1762880052.733709,1.42
1762880052.770171,1.45
1762880052.770356,1.47
1762880052.774198,1.43
1762880052.78152,1.45
1762880052.781678,1.53
1762880052.781805,1.5
1762880052.78193,1.45
1762880052.8090298,1.49
1762880052.809194,1.54
1762880052.80939,1.54
1762880052.809609,1.51
1762880052.809896,1.52
1762880052.814995,1.6
1762880052.821764,1.58
1762880052.8274088,1.57
1762880052.835279,1.62
1762880052.8400471,1.65
1762880052.8461509,1.68
1762880052.852451,1.68
1762880052.858685,1.69
1762880052.8649971,1.75
1762880052.871306,1.74
1762880052.877366,1.73
1762880052.883723,1.8
1762880052.889924,1.84
1762880052.8963258,1.88
1762880052.902417,1.87
1762880052.9088268,1.83
1762880052.914886,1.81
1762880052.921174,1.83
1762880052.927422,1.8
1762880052.933665,1.75
1762880052.9401689,1.68
1762880052.946188,1.61
1762880052.952437,1.53
1762880052.958703,1.49
1762880052.964869,1.5
1762880052.971164,1.46
1762880052.977377,1.44
1762880052.983689,1.46
1762880052.9899368,1.4
1762880052.99617,1.41
1762880053.002377,1.44
1762880053.0086458,1.41
1762880053.014824,1.43
1762880053.021195,1.42
1762880053.0274172,1.4
1762880053.0336251,1.43
1762880053.039976,1.44
1762880053.046237,1.45
1762880053.0526779,1.48
1762880053.058839,1.44
1762880053.064886,1.47
1762880053.071101,1.47
1762880053.077355,1.46
1762880053.083544,1.47
1762880053.090027,1.47
1762880053.096092,1.52
1762880053.102347,1.51
1762880053.108592,1.47
1762880053.1148028,1.5
1762880053.1210968,1.52
1762880053.127481,1.51
1762880053.133611,1.49
1762880053.1398091,1.47
1762880053.146163,1.5
1762880053.152749,1.52
1762880053.158611,1.5
1762880053.1648362,1.52
1762880053.1711202,1.5
1762880053.177355,1.46
1762880053.183628,1.49
1762880053.189784,1.48
1762880053.196011,1.5
1762880053.202352,1.5
1762880053.208603,1.48
1762880053.21474,1.49
1762880053.221038,1.49
1762880053.227332,1.5
1762880053.233641,1.51
1762880053.2398238,1.49
1762880053.245989,1.52
1762880053.252395,1.54
1762880053.258743,1.49
1762880053.264858,1.56
1762880053.271296,1.63
1762880053.2773209,1.58
1762880053.2835479,1.62
1762880053.289783,1.74
1762880053.296055,1.79
1762880053.302609,1.68
1762880053.308511,1.62
1762880053.314805,1.69
1762880053.321072,1.56
1762880053.327361,1.48
1762880053.333607,1.51
1762880053.339974,1.44
1762880053.3461351,1.43
1762880053.352736,1.44
1762880053.3587682,1.46
1762880053.364922,1.49
1762880053.371026,1.47
1762880053.3773482,1.43
1762880053.383589,1.46
1762880053.3898308,1.45
1762880053.3961139,1.48
1762880053.402414,1.47
1762880053.408581,1.47
1762880053.414748,1.52
1762880053.4211252,1.5
1762880053.427325,1.47
1762880053.4335601,1.53
1762880053.439917,1.55
1762880053.4461162,1.65
1762880053.452785,1.91
1762880053.458645,2.55
1762880053.465089,3.17
1762880053.471582,3.17
1762880053.477333,3.17
1762880053.483639,2.98
1762880053.490133,1.06
1762880053.496099,0.94
1762880053.502252,1.76
1762880053.5087628,1.62
1762880053.514708,1.36
1762880053.521038,1.44
1762880053.527315,1.49
1762880053.533556,1.46
1762880053.539766,1.41
1762880053.5460649,1.47
1762880053.552565,1.48
1762880053.5584798,1.46
1762880053.5648599,1.51
1762880053.571032,1.47
1762880053.5772438,1.46
1762880053.583505,1.53
1762880053.589707,1.5
1762880053.596035,1.53
1762880053.6023428,1.57
1762880053.608556,1.53
1762880053.61471,1.55
1762880053.621054,1.58
1762880053.627318,1.6
1762880053.7042959,1.63
1762880053.704484,1.58
1762880053.704627,1.6
1762880053.704771,1.7
1762880053.704916,1.7
1762880053.705057,1.69
1762880053.705222,1.7
1762880053.7088141,1.77
1762880053.709005,1.84
1762880053.709152,1.8
1762880053.709285,1.82
1762880053.709467,1.89
1762880053.709607,1.83
1762880053.719382,1.85
1762880053.722473,1.86
1762880053.727286,1.84
1762880053.733728,1.87
1762880053.7396889,1.79
1762880053.746111,1.7
1762880053.754526,1.64
1762880053.7585301,1.58
1762880053.764781,1.53
1762880053.7711658,1.46
1762880053.7772648,1.47
1762880053.783461,1.48
1762880053.789738,1.42
1762880053.795997,1.4
1762880053.802366,1.43
1762880053.808449,1.44
1762880053.8147368,1.46
1762880053.8209531,1.41
1762880053.827169,1.43
1762880053.8334222,1.45
1762880053.839864,1.42
1762880053.84603,1.47
1762880053.8521988,1.5
1762880053.85853,1.44
1762880053.864767,1.47
1762880053.870921,1.49
1762880053.877187,1.48
1762880053.883445,1.49
1762880053.889716,1.48
1762880053.895914,1.49
1762880053.902227,1.47
1762880053.908542,1.46
1762880053.91488,1.53
1762880053.9209652,1.51
1762880053.927113,1.46
1762880053.933474,1.54
1762880053.9399319,1.54
1762880053.945971,1.5
1762880053.952328,1.49
1762880053.95841,1.52
1762880053.9646878,1.54
1762880053.9708748,1.51
1762880053.977257,1.48
1762880053.983451,1.52
1762880053.9896388,1.5
1762880053.99599,1.48
1762880054.002205,1.5
1762880054.0084212,1.5
1762880054.0146182,1.49
1762880054.020917,1.5
1762880054.0272489,1.5
1762880054.0334442,1.49
1762880054.0397701,1.51
1762880054.045965,1.55
1762880054.0524318,1.55
1762880054.0583491,1.48
1762880054.064657,1.51
1762880054.070861,1.51
1762880054.077117,1.49
1762880054.083414,1.52
1762880054.089738,1.5
1762880054.096002,1.52
1762880054.102348,1.55
1762880054.108354,1.57
1762880054.114628,1.67
1762880054.1208792,1.64
1762880054.12724,1.6
1762880054.133473,1.75
1762880054.139651,1.78
1762880054.145943,1.68
1762880054.152222,1.61
1762880054.1583538,1.7
1762880054.1646001,1.68
1762880054.170917,1.5
1762880054.1771672,1.46
1762880054.183352,1.51
1762880054.189557,1.48
1762880054.19585,1.44
1762880054.2021918,1.47
1762880054.208389,1.47
1762880054.2149172,1.49
1762880054.220868,1.45
1762880054.2271512,1.48
1762880054.2381551,1.5
1762880054.242155,1.49
1762880054.281203,1.49
1762880054.304245,1.49
1762880054.304779,1.5
1762880054.304876,1.54
1762880054.304961,1.52
1762880054.3050392,1.49
1762880054.3052301,1.53
1762880054.305324,1.61
1762880054.305438,1.83
1762880054.305517,2.36
1762880054.3083851,3.15
1762880054.318044,3.17
1762880054.320839,3.17
1762880054.327088,3.13
1762880054.333363,1.37
1762880054.339757,0.8
1762880054.3459048,1.71
1762880054.352331,1.74
1762880054.3583272,1.34
1762880054.364651,1.42
1762880054.370822,1.53
1762880054.377082,1.48
1762880054.38331,1.46
1762880054.3898618,1.44
1762880054.3960981,1.47
1762880054.402205,1.53
1762880054.408291,1.49
1762880054.41454,1.49
1762880054.4208262,1.47
1762880054.427093,1.49
1762880054.433367,1.54
1762880054.43982,1.5
1762880054.445845,1.52
1762880054.452332,1.58
1762880054.458314,1.56
1762880054.464564,1.58
1762880054.470861,1.54
1762880054.4771688,1.59
1762880054.483305,1.68
1762880054.489648,1.63
1762880054.495889,1.65
1762880054.5020642,1.68
1762880054.508207,1.71
1762880054.514709,1.76
1762880054.5208519,1.76
1762880054.527025,1.75
1762880054.5337799,1.83
1762880054.5395992,1.83
1762880054.54588,1.82
1762880054.552008,1.85
1762880054.5582469,1.89
1762880054.564537,1.88
1762880054.5708601,1.83
1762880054.577137,1.82
1762880054.583242,1.84
1762880054.589518,1.71
1762880054.595793,1.65
1762880054.602041,1.67
1762880054.608236,1.58
1762880054.614572,1.52
1762880054.620849,1.48
1762880054.627315,1.44
1762880054.633344,1.48
1762880054.6395671,1.43
1762880054.645961,1.38
1762880054.6520598,1.41
1762880054.6583512,1.47
1762880054.6645398,1.46
1762880054.670769,1.4
1762880054.6770098,1.43
1762880054.683545,1.48
1762880054.6896892,1.44
1762880054.6958451,1.44
1762880054.702226,1.48
1762880054.7083771,1.42
1762880054.714612,1.48
1762880054.720798,1.5
1762880054.727026,1.48
1762880054.733888,1.48
1762880054.739579,1.46
1762880054.746034,1.52
1762880054.7523258,1.52
1762880054.758259,1.45
1762880054.7646122,1.49
1762880054.770731,1.54
1762880054.777057,1.5
1762880054.7833412,1.49
1762880054.7895339,1.51
1762880054.795935,1.52
1762880054.802135,1.53
1762880054.808374,1.5
1762880054.814761,1.51
1762880054.82079,1.48
1762880054.82703,1.47
1762880054.833299,1.55
1762880054.839508,1.52
1762880054.845879,1.49
1762880054.852059,1.51
1762880054.8582568,1.47
1762880054.864492,1.53
1762880054.870751,1.52
1762880054.877007,1.48
1762880054.883342,1.53
1762880054.889517,1.5
1762880054.895838,1.48
1762880054.9020119,1.52
1762880054.908284,1.53
1762880054.914507,1.53
1762880054.920728,1.48
1762880054.92704,1.48
1762880054.933402,1.54
1762880054.9396322,1.56
1762880054.945902,1.57
1762880054.951941,1.64
1762880054.958289,1.63
1762880054.964475,1.66
1762880054.97071,1.73
1762880054.97715,1.78
1762880054.983348,1.74
1762880054.9895968,1.65
1762880054.995789,1.66
1762880055.0022888,1.6
1762880055.008245,1.47
1762880055.014426,1.47
1762880055.0206988,1.52
1762880055.026946,1.5
1762880055.033324,1.49
1762880055.039469,1.46
1762880055.045681,1.49
1762880055.052014,1.48
1762880055.058174,1.48
1762880055.064426,1.54
1762880055.070761,1.48
1762880055.076937,1.47
1762880055.083384,1.51
1762880055.089518,1.5
1762880055.095743,1.51
1762880055.101907,1.53
1762880055.108194,1.51
1762880055.114434,1.56
1762880055.120652,1.55
1762880055.1269948,1.63
1762880055.133379,1.87
1762880055.1393611,2.42
1762880055.145792,3.16
1762880055.1519291,3.17
1762880055.158198,3.17
1762880055.164553,3.12
1762880055.1706839,1.35
1762880055.176914,0.86
1762880055.183336,1.69
1762880055.189461,1.77
1762880055.195853,1.46
1762880055.201938,1.44
1762880055.208172,1.5
1762880055.214431,1.49
1762880055.220624,1.45
1762880055.2268748,1.46
1762880055.23322,1.52
1762880055.239536,1.48
1762880055.2456698,1.46
1762880055.252336,1.5
1762880055.258164,1.52
1762880055.264451,1.56
1762880055.270565,1.55
1762880055.276858,1.52
1762880055.283317,1.58
1762880055.289411,1.58
1762880055.2956889,1.59
1762880055.302057,1.59
1762880055.308196,1.57
1762880055.314453,1.61
1762880055.320738,1.66
1762880055.3268821,1.68
1762880055.3331552,1.7
1762880055.339364,1.68
1762880055.3458822,1.71
1762880055.351876,1.78
1762880055.358134,1.79
1762880055.364445,1.83
1762880055.370683,1.85
1762880055.376907,1.82
1762880055.383242,1.84
1762880055.3893409,1.85
1762880055.395693,1.94
1762880055.402051,1.94
1762880055.408145,1.87
1762880055.414442,1.83
1762880055.42064,1.79
1762880055.426838,1.74
1762880055.4332411,1.68
1762880055.439359,1.57
1762880055.4457119,1.59
1762880055.452097,1.57
1762880055.458116,1.46
1762880055.4643798,1.49
1762880055.470708,1.5
1762880055.47701,1.46
1762880055.4837341,1.47
1762880055.489433,1.41
1762880055.495622,1.44
1762880055.501885,1.51
1762880055.508085,1.44
1762880055.514404,1.46
1762880055.52061,1.48
1762880055.5268638,1.45
1762880055.533509,1.44
1762880055.5393012,1.46
1762880055.545661,1.52
1762880055.551889,1.49
1762880055.558125,1.47
1762880055.5644631,1.52
1762880055.582342,1.51
1762880055.592256,1.48
1762880055.592447,1.52
1762880055.63759,1.53
1762880055.637828,1.52
1762880055.63792,1.54
1762880055.637994,1.52
1762880055.63835,1.53
1762880055.638422,1.52
1762880055.638526,1.48
1762880055.638606,1.54
1762880055.639343,1.53
1762880055.645605,1.52
1762880055.6525178,1.53
1762880055.658319,1.49
1762880055.664447,1.52
1762880055.670623,1.57
1762880055.6767879,1.52
1762880055.68339,1.51
1762880055.689318,1.5
1762880055.695665,1.51
1762880055.701806,1.53
1762880055.708093,1.51
1762880055.7143161,1.53
1762880055.720591,1.52
1762880055.726859,1.48
1762880055.7337642,1.54
1762880055.7394319,1.54
1762880055.745515,1.56
1762880055.751765,1.61
1762880055.757969,1.62
1762880055.764311,1.62
1762880055.770592,1.69
1762880055.7767732,1.77
1762880055.783146,1.76
1762880055.789286,1.64
1762880055.7955909,1.66
1762880055.801864,1.68
1762880055.80795,1.51
1762880055.8143418,1.49
1762880055.820533,1.49
1762880055.827084,1.48
1762880055.833112,1.49
1762880055.8392892,1.43
1762880055.845557,1.47
1762880055.8517828,1.5
1762880055.857905,1.47
1762880055.8643332,1.49
1762880055.870551,1.48
1762880055.8767202,1.46
1762880055.883106,1.5
1762880055.889306,1.5
1762880055.895694,1.5
1762880055.901773,1.53
1762880055.9080162,1.49
1762880055.914284,1.51
1762880055.9205241,1.54
1762880055.92677,1.56
1762880055.9336681,1.69
1762880055.939383,2.01
1762880055.945598,2.8
1762880055.951794,3.17
1762880055.9581,3.17
1762880055.964243,3.17
1762880055.970518,2.63
1762880055.976654,0.87
1762880055.9831932,1.2
1762880055.9891999,1.81
1762880055.9955058,1.52
1762880056.001765,1.34
1762880056.0079732,1.46
1762880056.014303,1.49
1762880056.020569,1.43
1762880056.026709,1.43
1762880056.0333052,1.47
1762880056.039205,1.46
1762880056.045467,1.45
1762880056.0518332,1.51
1762880056.058049,1.48
1762880056.064214,1.49
1762880056.070535,1.5
1762880056.076714,1.51
1762880056.083137,1.54
1762880056.089198,1.53
1762880056.095573,1.54
1762880056.1018019,1.57
1762880056.107906,1.54
1762880056.114218,1.58
1762880056.120468,1.62
1762880056.126656,1.55
1762880056.133012,1.63
1762880056.139298,1.7
1762880056.145459,1.67
1762880056.151735,1.7
1762880056.15794,1.72
1762880056.164235,1.77
1762880056.1705558,1.8
1762880056.176703,1.78
1762880056.183001,1.81
1762880056.189263,1.82
1762880056.195461,1.82
1762880056.201714,1.84
1762880056.207935,1.82
1762880056.2142138,1.81
1762880056.220414,1.76
1762880056.2267368,1.71
1762880056.2329862,1.72
1762880056.239402,1.61
1762880056.245779,1.51
1762880056.25192,1.54
1762880056.258021,1.49
1762880056.264261,1.45
1762880056.270438,1.46
1762880056.276748,1.42
1762880056.2835321,1.43
1762880056.289181,1.4
1762880056.295517,1.36
1762880056.301903,1.45
1762880056.3079739,1.46
1762880056.31421,1.43
1762880056.3204951,1.43
1762880056.326732,1.41
1762880056.333139,1.46
1762880056.3391318,1.46
1762880056.3454452,1.43
1762880056.352318,1.46
1762880056.358012,1.43
1762880056.3641798,1.48
1762880056.3705149,1.5
1762880056.37672,1.45
1762880056.383283,1.5
1762880056.389215,1.52
1762880056.395455,1.49
1762880056.401682,1.51
1762880056.407812,1.48
1762880056.414193,1.49
1762880056.4204018,1.52
1762880056.4266398,1.5
1762880056.4329119,1.49
1762880056.43915,1.5
1762880056.445419,1.52
1762880056.451788,1.51
1762880056.457946,1.43
1762880056.4641721,1.5
1762880056.470488,1.52
1762880056.476602,1.48
1762880056.4830542,1.48
1762880056.489242,1.48
1762880056.4955058,1.5
1762880056.5017002,1.51
1762880056.507937,1.45
1762880056.514152,1.48
1762880056.520427,1.54
1762880056.5265658,1.51
1762880056.532892,1.47
1762880056.539213,1.49
1762880056.545377,1.51
1762880056.5517702,1.55
1762880056.55789,1.6
1762880056.564189,1.62
1762880056.5704331,1.63
1762880056.57661,1.72
1762880056.582983,1.76
1762880056.589264,1.68
1762880056.595398,1.63
1762880056.601774,1.68
1762880056.607903,1.58
1762880056.614203,1.53
1762880056.6204119,1.52
1762880056.626675,1.43
1762880056.633152,1.43
1762880056.6392052,1.46
1762880056.645344,1.45
1762880056.651684,1.47
1762880056.6578372,1.44
1762880056.66417,1.45
1762880056.670419,1.47
1762880056.676575,1.44
1762880056.6829581,1.46
1762880056.6893802,1.48
1762880056.695322,1.45
1762880056.701579,1.51
1762880056.707843,1.48
1762880056.714197,1.49
1762880056.720418,1.52
1762880056.7266371,1.5
1762880056.733037,1.59
1762880056.739118,1.76
1762880056.745434,2.13
1762880056.751607,2.98
1762880056.757836,3.17
1762880056.764141,3.17
1762880056.7703621,3.17
1762880056.7766101,2.07
1762880056.7829518,0.69
1762880056.789275,1.44
1762880056.795365,1.86
1762880056.801595,1.45
1762880056.807819,1.27
1762880056.814122,1.49
1762880056.820318,1.51
1762880056.8266199,1.39
1762880056.833323,1.42
1762880056.83918,1.48
1762880056.845332,1.48
1762880056.851604,1.49
1762880056.8578932,1.43
1762880056.864073,1.48
1762880056.870379,1.53
1762880056.8765812,1.49
1762880056.8828852,1.52
1762880056.8891819,1.55
1762880056.895295,1.52
1762880056.90164,1.55
1762880056.907817,1.55
1762880056.9140632,1.59
1762880056.920387,1.6
1762880056.9266171,1.56
1762880056.932877,1.62
1762880056.939062,1.67
1762880056.9453151,1.67
1762880056.951572,1.71
1762880056.9579048,1.67
1762880056.964206,1.71
1762880056.970307,1.8
1762880056.976581,1.77
1762880056.982962,1.84
1762880056.994677,1.86
1762880056.998004,1.82
1762880057.007987,1.82
1762880057.0085351,1.86
1762880057.031569,1.9
1762880057.0566452,1.86
1762880057.0568142,1.74
1762880057.056979,1.73
1762880057.0570822,1.71
1762880057.05725,1.63
1762880057.057337,1.58
1762880057.057782,1.48
1762880057.064042,1.46
1762880057.07145,1.49
1762880057.084113,1.44
1762880057.084398,1.44
1762880057.08912,1.41
1762880057.0954041,1.38
1762880057.101666,1.46
1762880057.1078231,1.45
1762880057.114152,1.42
1762880057.120362,1.43
1762880057.126593,1.38
1762880057.132938,1.48
1762880057.1390688,1.5
1762880057.145621,1.45
1762880057.151621,1.45
1762880057.157771,1.44
1762880057.164177,1.5
1762880057.170343,1.5
1762880057.1767108,1.46
1762880057.18315,1.49
1762880057.189007,1.49
1762880057.195276,1.48
1762880057.201599,1.52
1762880057.2078028,1.51
1762880057.21436,1.51
1762880057.220348,1.51
1762880057.2264981,1.49
1762880057.2328131,1.49
1762880057.2390752,1.52
1762880057.245367,1.5
1762880057.251429,1.51
1762880057.257729,1.48
1762880057.264391,1.52
1762880057.2702909,1.52
1762880057.276545,1.46
1762880057.282773,1.51
1762880057.2890291,1.51
1762880057.295414,1.46
1762880057.301503,1.49
1762880057.307675,1.5
1762880057.314166,1.54
1762880057.320211,1.54
1762880057.326498,1.47
1762880057.332722,1.49
1762880057.338995,1.51
1762880057.345278,1.5
1762880057.3514628,1.54
1762880057.357713,1.49
1762880057.364456,1.48
1762880057.370305,1.51
1762880057.3764448,1.52
1762880057.382765,1.5
1762880057.389018,1.49
1762880057.395185,1.51
1762880057.401464,1.57
1762880057.407729,1.61
1762880057.414231,1.64
1762880057.4202309,1.63
1762880057.426462,1.65
1762880057.432744,1.79
1762880057.4389591,1.75
1762880057.4452531,1.65
1762880057.451415,1.68
1762880057.457841,1.67
1762880057.464077,1.57
1762880057.4702039,1.52
1762880057.4765089,1.47
1762880057.4828548,1.5
1762880057.488967,1.49
1762880057.495209,1.47
1762880057.501428,1.48
1762880057.507658,1.47
1762880057.514028,1.46
1762880057.520171,1.48
1762880057.5264971,1.49
1762880057.532683,1.5
1762880057.5388858,1.47
1762880057.545224,1.48
1762880057.551414,1.53
1762880057.557704,1.53
1762880057.564509,1.52
1762880057.5701451,1.52
1762880057.5764968,1.54
1762880057.582674,1.57
1762880057.588902,1.62
1762880057.59537,1.84
1762880057.60147,2.43
1762880057.6076832,3.16
1762880057.614562,3.17
1762880057.620225,3.17
1762880057.626453,3.13
1762880057.6328351,1.32
1762880057.638898,0.81
1762880057.645246,1.73
1762880057.651364,1.81
1762880057.6577559,1.34
1762880057.664086,1.37
1762880057.670159,1.56
1762880057.676354,1.47
1762880057.682824,1.46
1762880057.6888971,1.48
1762880057.695164,1.46
1762880057.7014349,1.48
1762880057.707684,1.5
1762880057.7140129,1.52
1762880057.720097,1.51
1762880057.726347,1.49
1762880057.7327669,1.54
1762880057.738904,1.54
1762880057.745226,1.5
1762880057.7515352,1.54
1762880057.7577212,1.59
1762880057.7639601,1.6
1762880057.7702222,1.6
1762880057.7764502,1.58
1762880057.782646,1.64
1762880057.788867,1.64
1762880057.795115,1.66
1762880057.801483,1.72
1762880057.807703,1.71
1762880057.8143911,1.75
1762880057.820112,1.78
1762880057.8264189,1.78
1762880057.83286,1.83
1762880057.83887,1.85
1762880057.845123,1.84
1762880057.851381,1.87
1762880057.857669,1.86
1762880057.864029,1.9
1762880057.870143,1.91
1762880057.876526,1.84
1762880057.882622,1.81
1762880057.888947,1.75
1762880057.8951528,1.63
1762880057.90134,1.63
1762880057.9076312,1.61
1762880057.914426,1.53
1762880057.920127,1.49
1762880057.9263191,1.42
1762880057.932669,1.45
1762880057.938895,1.45
1762880057.945096,1.43
1762880057.951381,1.48
1762880057.95763,1.43
1762880057.964023,1.35
1762880057.970148,1.47
1762880057.976426,1.49
1762880057.982929,1.46
1762880057.988843,1.49
1762880057.995105,1.46
1762880058.00142,1.46
1762880058.007613,1.49
1762880058.013828,1.5
1762880058.020125,1.48
1762880058.026391,1.48
1762880058.032646,1.52
1762880058.03888,1.51
1762880058.045509,1.5
1762880058.051348,1.52
1762880058.057665,1.47
1762880058.063843,1.49
1762880058.070274,1.54
1762880058.076376,1.52
1762880058.088861,1.52
1762880058.091585,1.5
1762880058.1024919,1.49
1762880058.102668,1.51
1762880058.1243432,1.51
1762880058.124824,1.52
1762880058.141454,1.52
1762880058.141603,1.5
1762880058.142752,1.51
1762880058.145663,1.51
1762880058.1495612,1.52
1762880058.179389,1.51
1762880058.180366,1.49
1762880058.1809978,1.52
1762880058.182147,1.52
1762880058.183491,1.5
1762880058.1848981,1.53
1762880058.1889448,1.53
1762880058.196148,1.48
1762880058.20137,1.51
1762880058.237356,1.53
1762880058.238514,1.5
1762880058.238754,1.52
1762880058.238987,1.52
1762880058.2391942,1.52
1762880058.2394,1.5
1762880058.246936,1.49
1762880058.252036,1.58
1762880058.2577028,1.54
1762880058.263894,1.53
1762880058.2701309,1.56
1762880058.276366,1.53
1762880058.282728,1.59
1762880058.288888,1.64
1762880058.295459,1.64
1762880058.301413,1.69
1762880058.307671,1.76
1762880058.3139222,1.75
1762880058.320144,1.72
1762880058.326379,1.66
1762880058.332674,1.7
1762880058.33882,1.65
1762880058.34512,1.5
1762880058.35137,1.52
1762880058.357535,1.52
1762880058.3641222,1.49
1762880058.370101,1.48
1762880058.376344,1.5
1762880058.3825972,1.51
1762880058.388772,1.5
1762880058.397755,1.46
1762880058.4160771,1.49
1762880058.41627,1.52
1762880058.4164412,1.53
1762880058.435725,1.54
1762880058.4359622,1.48
1762880058.436374,1.5
1762880058.438752,1.61
1762880058.445361,1.58
1762880058.4513779,1.55
1762880058.457539,1.54
1762880058.463819,1.61
1762880058.470123,1.85
1762880058.476429,2.34
1762880058.482568,3.16
1762880058.4887419,3.17
1762880058.495147,3.17
1762880058.501706,3.16
1762880058.507515,1.84
1762880058.513768,0.82
1762880058.520025,1.55
1762880058.5263,1.78
1762880058.5328078,1.46
1762880058.5388641,1.39
1762880058.545126,1.49
1762880058.5514932,1.55
1762880058.557578,1.49
1762880058.56422,1.46
1762880058.570166,1.51
1762880058.576282,1.5
1762880058.582507,1.51
1762880058.588769,1.52
1762880058.595275,1.51
1762880058.601295,1.54
1762880058.6074939,1.56
1762880058.613686,1.54
1762880058.6200588,1.57
1762880058.626271,1.54
1762880058.632478,1.56
1762880058.638722,1.64
1762880058.644979,1.6
1762880058.651196,1.58
1762880058.657593,1.63
1762880058.663798,1.67
1762880058.6699378,1.66
1762880058.6763,1.68
1762880058.682475,1.74
1762880058.688715,1.75
1762880058.695215,1.77
1762880058.70127,1.84
1762880058.707598,1.81
1762880058.7137501,1.8
1762880058.7199569,1.88
1762880058.726232,1.85
1762880058.732395,1.84
1762880058.7387352,1.9
1762880058.744982,1.88
1762880058.7512288,1.84
1762880058.757558,1.79
1762880058.763965,1.78
1762880058.7699862,1.74
1762880058.776254,1.59
1762880058.7824588,1.53
1762880058.788672,1.57
1762880058.794966,1.54
1762880058.801235,1.5
1762880058.807489,1.47
1762880058.813896,1.43
1762880058.8200629,1.44
1762880058.826117,1.47
1762880058.8324978,1.45
1762880058.838737,1.42
1762880058.8450181,1.4
1762880058.8512168,1.48
1762880058.85752,1.47
1762880058.863809,1.45
1762880058.86989,1.49
1762880058.8762188,1.44
1762880058.882462,1.45
1762880058.88875,1.51
1762880058.895024,1.49
1762880058.901283,1.52
1762880058.907468,1.52
1762880058.9139059,1.49
1762880058.919873,1.51
1762880058.926294,1.47
1762880058.932706,1.53
1762880058.938745,1.54
1762880058.9450712,1.51
1762880058.951234,1.53
1762880058.9575539,1.51
1762880058.963857,1.51
1762880058.9699981,1.52
1762880058.976495,1.51
1762880058.982634,1.51
1762880058.9887822,1.51
1762880058.994974,1.5
1762880059.001321,1.51
1762880059.007533,1.49
1762880059.013935,1.5
1762880059.019986,1.54
1762880059.0262542,1.51
1762880059.032466,1.51
1762880059.038867,1.53
1762880059.045239,1.5
1762880059.051182,1.52
1762880059.057597,1.5
1762880059.0637271,1.48
1762880059.0700119,1.54
1762880059.0761878,1.52
1762880059.082475,1.5
1762880059.088639,1.48
1762880059.095006,1.5
1762880059.101136,1.55
1762880059.107438,1.5
1762880059.113724,1.49
1762880059.120009,1.54
1762880059.126558,1.5
1762880059.1325388,1.49
1762880059.138779,1.59
1762880059.145182,1.66
1762880059.151285,1.66
1762880059.1576052,1.61
1762880059.16363,1.64
1762880059.169919,1.76
1762880059.176244,1.74
1762880059.182403,1.67
1762880059.188651,1.64
1762880059.194983,1.65
1762880059.201169,1.61
1762880059.2074602,1.52
1762880059.2137222,1.47
1762880059.219851,1.49
1762880059.2262049,1.47
1762880059.23243,1.5
1762880059.238595,1.48
1762880059.244847,1.45
1762880059.251169,1.49
1762880059.257518,1.49
1762880059.263857,1.48
1762880059.269832,1.52
1762880059.276287,1.49
1762880059.2824209,1.5
1762880059.288505,1.51
1762880059.29487,1.49
1762880059.301155,1.53
1762880059.307429,1.53
1762880059.313638,1.52
1762880059.319999,1.54
1762880059.326137,1.59
1762880059.332285,1.81
1762880059.338604,2.3
1762880059.344939,3.13
1762880059.351048,3.17
1762880059.357347,3.17
1762880059.3635578,3.16
1762880059.3699908,1.88
1762880059.3760571,0.72
1762880059.38247,1.5
1762880059.388643,1.85
1762880059.394929,1.41
1762880059.401093,1.35
1762880059.4073741,1.53
1762880059.4136739,1.49
1762880059.420077,1.43
1762880059.4261131,1.39
1762880059.432375,1.49
1762880059.43854,1.54
1762880059.4448588,1.48
1762880059.451221,1.47
1762880059.457528,1.47
1762880059.463725,1.49
1762880059.469981,1.52
1762880059.476151,1.52
1762880059.4824152,1.54
1762880059.4887009,1.54
1762880059.49496,1.54
1762880059.500996,1.59
1762880059.507432,1.57
1762880059.513567,1.53
1762880059.519928,1.63
1762880059.5260959,1.67
1762880059.532314,1.66
1762880059.538516,1.65
1762880059.544799,1.68
1762880059.551093,1.74
1762880059.557355,1.75
1762880059.563585,1.78
1762880059.569856,1.83
1762880059.576066,1.79
1762880059.58229,1.82
1762880059.588511,1.88
1762880059.5947661,1.84
1762880059.601096,1.86
1762880059.607309,1.86
1762880059.613524,1.82
1762880059.6198132,1.82
1762880059.6266,1.74
1762880059.632281,1.65
1762880059.638519,1.63
1762880059.6447868,1.58
1762880059.6510599,1.55
1762880059.6572921,1.5
1762880059.6636758,1.43
1762880059.669852,1.44
1762880059.6760929,1.44
1762880059.682262,1.44
1762880059.6885078,1.42
1762880059.694785,1.41
1762880059.701002,1.43
1762880059.70733,1.42
1762880059.713655,1.44
1762880059.719817,1.47
1762880059.72606,1.43
1762880059.732374,1.45
1762880059.738501,1.47
1762880059.744739,1.43
1762880059.7509959,1.45
1762880059.7571971,1.46
1762880059.763509,1.49
1762880059.7697148,1.52
1762880059.7761102,1.46
1762880059.782272,1.44
1762880059.788479,1.49
1762880059.794816,1.52
1762880059.8012018,1.52
1762880059.80738,1.46
1762880059.813588,1.45
1762880059.819766,1.54
1762880059.826001,1.52
1762880059.8323379,1.51
1762880059.838527,1.53
1762880059.84478,1.47
1762880059.8510048,1.5
1762880059.8572428,1.52
1762880059.8635058,1.5
1762880059.86971,1.52
1762880059.8761768,1.45
1762880059.882283,1.46
1762880059.888757,1.53
1762880059.8948648,1.51
1762880059.911703,1.49
1762880059.952394,1.49
1762880059.952522,1.48
1762880059.961735,1.51
1762880059.961874,1.49
1762880059.967368,1.5
1762880059.967934,1.52
1762880059.968137,1.51
1762880059.968281,1.51
1762880059.968835,1.48
1762880059.969204,1.47
1762880059.970004,1.54
1762880059.976053,1.48
1762880059.982789,1.5
1762880059.9885068,1.57
1762880059.994942,1.47
1762880060.001066,1.49
1762880060.007228,1.57
1762880060.0137658,1.55
1762880060.019865,1.52
1762880060.0260742,1.54
1762880060.0322728,1.54
1762880060.038482,1.56
1762880060.0447428,1.62
1762880060.051038,1.68
1762880060.057225,1.65
1762880060.063458,1.72
1762880060.069841,1.77
1762880060.076088,1.71
1762880060.082193,1.68
1762880060.088418,1.69
1762880060.094708,1.61
1762880060.101098,1.55
1762880060.107248,1.49
1762880060.113503,1.5
1762880060.119724,1.47
1762880060.126188,1.42
1762880060.132239,1.52
1762880060.138674,1.53
1762880060.1447418,1.48
1762880060.151104,1.5
1762880060.1576269,1.52
1762880060.16364,1.46
1762880060.169843,1.5
1762880060.1761112,1.51
1762880060.182268,1.56
1762880060.188607,1.53
1762880060.194747,1.48
1762880060.200918,1.62
1762880060.207244,1.59
1762880060.213556,1.48
1762880060.21982,1.62
1762880060.226115,1.8
1762880060.2323189,2.31
1762880060.238435,3.15
1762880060.244693,3.17
1762880060.2508621,3.17
1762880060.257169,3.16
1762880060.2636852,1.65
1762880060.2697809,0.82
1762880060.2760751,1.56
1762880060.282193,1.84
1762880060.288697,1.45
1762880060.29474,1.37
1762880060.301077,1.57
1762880060.307192,1.44
1762880060.3134751,1.36
1762880060.319726,1.5
1762880060.3260102,1.42
1762880060.332233,1.49
1762880060.3385038,1.58
1762880060.3451111,1.53
1762880060.350919,1.53
1762880060.357141,1.42
1762880060.363431,1.45
1762880060.369617,1.6
1762880060.376361,1.58
1762880060.382169,1.54
1762880060.388489,1.55
1762880060.3946629,1.57
1762880060.4009018,1.6
1762880060.407178,1.54
1762880060.4133592,1.56
1762880060.419588,1.69
1762880060.425947,1.59
1762880060.432172,1.66
1762880060.4383738,1.76
1762880060.4446359,1.75
1762880060.4510038,1.77
1762880060.457221,1.66
1762880060.463446,1.83
1762880060.469644,1.89
1762880060.475931,1.75
1762880060.482105,1.89
1762880060.488414,1.86
1762880060.494653,1.83
1762880060.500928,2.17
1762880060.507149,2.29
1762880060.5134678,2.01
1762880060.519618,1.53
1762880060.525957,1.44
1762880060.532095,1.74
1762880060.53834,1.64
1762880060.54463,1.2
1762880060.5508611,1.44
1762880060.557056,1.43
1762880060.563454,1.4
1762880060.569677,1.52
1762880060.575943,1.25
1762880060.582187,1.3
1762880060.588515,1.52
1762880060.5946481,1.8
1762880060.6008692,1.98
1762880060.6070778,1.29
1762880060.613452,0.94
1762880060.6196501,1.74
1762880060.6259,1.65
1762880060.632267,0.92
1762880060.6383328,1.02
1762880060.644641,1.51
1762880060.650815,1.61
1762880060.657127,1.3
1762880060.663302,1.34
1762880060.669593,1.64
1762880060.675911,1.64
1762880060.6823769,2.05
1762880060.688582,2.3
1762880060.694728,1.26
1762880060.700893,0.88
1762880060.7070851,1.43
1762880060.713321,1.32
1762880060.719508,1.22
1762880060.7259462,1.31
1762880060.732172,1.53
1762880060.738323,1.54
1762880060.744834,1.42
1762880060.750856,1.44
1762880060.7570271,1.72
1762880060.763393,1.97
1762880060.7697752,1.35
1762880060.775925,1.51
1762880060.782036,1.84
1762880060.788255,1.0
1762880060.794646,1.15
1762880060.800849,1.75
1762880060.807092,1.47
1762880060.8134038,1.32
1762880060.8196852,1.49
1762880060.8259342,1.61
1762880060.832216,1.69
1762880060.8385851,1.66
1762880060.844678,1.5
1762880060.8510458,1.96
1762880060.8571131,1.84
1762880060.863453,0.71
1762880060.8696902,1.3
1762880060.875892,1.92
1762880060.882015,1.78
1762880060.8882828,1.36
1762880060.894602,1.34
1762880060.900804,1.38
1762880060.9070039,1.77
1762880060.913321,2.03
1762880060.9195,1.53
1762880060.925816,1.42
1762880060.932061,1.99
1762880060.938333,1.69
1762880060.944851,1.14
1762880060.9507651,1.49
1762880060.9570382,1.96
1762880060.96333,2.04
1762880060.969623,1.67
1762880060.9762602,1.33
1762880060.982084,1.71
1762880060.9883819,1.98
1762880060.994747,1.53
1762880061.000892,1.01
1762880061.0070632,1.51
1762880061.0133178,1.98
1762880061.0195808,1.21
1762880061.025968,1.07
1762880061.03205,1.66
1762880061.038419,1.84
1762880061.044898,1.58
1762880061.050791,1.26
1762880061.057036,1.52
1762880061.063334,1.54
1762880061.0697181,1.45
1762880061.0759182,1.52
1762880061.0820942,2.02
1762880061.088385,1.55
1762880061.094667,1.28
1762880061.100876,1.51
1762880061.106932,1.71
1762880061.1133,2.0
1762880061.119565,3.16
1762880061.1258292,3.17
1762880061.131975,3.17
1762880061.1383822,3.17
1762880061.144574,2.44
1762880061.150787,1.36
1762880061.1571488,1.52
1762880061.16339,1.15
1762880061.169549,1.36
1762880061.175818,1.91
1762880061.182247,1.55
1762880061.1883242,1.0
1762880061.194885,1.3
1762880061.2007701,1.68
1762880061.207048,1.7
1762880061.2134552,1.42
1762880061.219541,1.45
1762880061.225852,1.52
1762880061.23204,1.88
1762880061.2382982,1.63
1762880061.2446752,1.2
1762880061.250711,1.44
1762880061.2569711,1.57
1762880061.263309,1.64
1762880061.269459,1.56
1762880061.275823,1.53
1762880061.2819672,1.7
1762880061.288321,1.62
1762880061.2945979,1.71
1762880061.3007,1.79
1762880061.306933,1.64
1762880061.3133261,1.65
1762880061.319681,1.82
1762880061.325844,1.74
1762880061.339991,1.58
1762880061.3532958,1.75
1762880061.353415,1.96
1762880061.361988,1.94
1762880061.365559,1.7
1762880061.369684,1.82
1762880061.3817742,2.17
1762880061.4000452,1.96
1762880061.4001238,1.77
1762880061.4002502,2.06
1762880061.400369,1.87
1762880061.4007292,1.87
1762880061.407059,1.58
1762880061.4132092,1.43
1762880061.419456,1.76
1762880061.4260092,1.89
1762880061.431995,1.59
1762880061.438275,1.22
1762880061.444628,1.69
1762880061.450721,1.63
1762880061.4570508,1.3
1762880061.463356,1.62
1762880061.4694998,1.58
1762880061.475753,1.1
1762880061.4821918,1.18
1762880061.488272,1.53
1762880061.494536,1.63
1762880061.500746,1.44
1762880061.506887,1.47
1762880061.513302,1.69
1762880061.51947,1.52
1762880061.5262568,1.31
1762880061.5320792,1.72
1762880061.53828,1.54
1762880061.5446908,0.99
1762880061.550755,1.49
1762880061.557004,1.65
1762880061.563288,1.43
1762880061.5697181,1.6
1762880061.5757198,1.81
1762880061.582193,1.64
1762880061.5882828,1.39
1762880061.5944378,1.33
1762880061.600748,1.38
1762880061.6069481,1.49
1762880061.6132338,1.51
1762880061.619793,1.55
1762880061.625757,1.5
1762880061.631988,1.52
1762880061.638237,1.64
1762880061.644567,1.59
1762880061.6507719,1.55
1762880061.6568918,1.42
1762880061.663282,1.49
1762880061.669399,1.59
1762880061.6758988,1.52
1762880061.682039,1.51
1762880061.688273,1.56
1762880061.695651,1.52
1762880061.70074,1.55
1762880061.7070458,1.61
1762880061.7132952,1.56
1762880061.719896,1.57
1762880061.7257679,1.53
1762880061.732021,1.62
1762880061.7384,1.7
1762880061.744411,1.62
1762880061.7508092,1.73
1762880061.75689,1.76
1762880061.7631721,1.81
1762880061.7695339,1.74
1762880061.775658,1.7
1762880061.781914,1.7
1762880061.7882612,1.72
1762880061.794435,1.41
1762880061.800797,1.68
1762880061.806873,1.61
1762880061.813167,1.67
1762880061.81938,1.41
1762880061.8258162,1.32
1762880061.831819,1.41
1762880061.838078,1.61
1762880061.8444889,1.29
1762880061.8506722,1.49
1762880061.856951,1.54
1762880061.863183,1.35
1762880061.869357,1.49
1762880061.8757691,1.68
1762880061.881833,1.71
1762880061.888196,1.54
1762880061.894392,1.13
1762880061.900636,1.46
1762880061.906825,1.68
1762880061.9132328,1.88
1762880061.919543,2.49
1762880061.925719,3.17
1762880061.9319549,3.17
1762880061.938385,3.17
1762880061.944473,3.08
1762880061.950672,1.54
1762880061.956964,0.94
1762880061.96319,1.38
1762880061.96959,1.59
1762880061.975713,1.45
1762880061.981968,1.52
1762880061.98819,1.46
1762880061.995376,1.36
1762880062.000781,1.51
1762880062.006773,1.42
1762880062.0132968,1.35
1762880062.0194108,1.45
1762880062.0256681,1.49
1762880062.031921,1.47
1762880062.038089,1.51
1762880062.045074,1.49
1762880062.050585,1.5
1762880062.056802,1.51
1762880062.063105,1.48
1762880062.069498,1.52
1762880062.075588,1.6
1762880062.08198,1.53
1762880062.088054,1.52
1762880062.0946932,1.55
1762880062.100472,1.85
1762880062.106742,1.79
1762880062.1130319,1.32
1762880062.11934,1.46
1762880062.125588,1.71
1762880062.1317701,1.74
1762880062.138029,1.73
1762880062.1443079,1.74
1762880062.150541,1.79
1762880062.156733,1.87
1762880062.1631181,2.18
1762880062.169322,1.97
1762880062.1759832,1.51
1762880062.181799,1.96
1762880062.188085,1.9
1762880062.1943429,1.41
1762880062.200515,1.55
1762880062.206723,1.75
1762880062.2130299,1.8
1762880062.21926,1.62
1762880062.226166,1.26
1762880062.231841,1.36
1762880062.2383811,1.55
1762880062.244431,1.44
1762880062.250745,1.4
1762880062.2569652,1.39
1762880062.2632902,1.35
1762880062.269493,1.46
1762880062.2756212,1.43
1762880062.281714,1.38
1762880062.2880352,1.4
1762880062.294368,1.36
1762880062.300504,1.43
1762880062.306864,1.48
1762880062.31314,1.41
1762880062.319437,1.43
1762880062.325797,1.46
1762880062.331807,1.44
1762880062.3380532,1.44
1762880062.344372,1.43
1762880062.3504798,1.51
1762880062.35678,1.5
1762880062.3630831,1.5
1762880062.369277,1.54
1762880062.375568,1.49
1762880062.38192,1.5
1762880062.3881578,1.51
1762880062.394542,1.43
1762880062.400684,1.53
1762880062.4068322,1.54
1762880062.413151,1.44
1762880062.419411,1.46
1762880062.426327,1.51
1762880062.431943,1.5
1762880062.438324,1.49
1762880062.444472,1.46
1762880062.4506822,1.48
1762880062.456814,1.44
1762880062.46314,1.47
1762880062.469594,1.52
1762880062.475583,1.43
1762880062.481865,1.43
1762880062.4880798,1.5
1762880062.4943428,1.45
1762880062.500545,1.46
1762880062.50677,1.48
1762880062.513052,1.41
1762880062.5193942,1.44
1762880062.525932,1.46
1762880062.531748,1.51
1762880062.5381749,1.56
1762880062.544245,1.54
1762880062.550565,1.55
1762880062.556829,1.53
1762880062.563103,1.66
1762880062.5694451,1.79
1762880062.5756822,1.64
1762880062.581876,1.55
1762880062.5883331,1.66
1762880062.5944982,1.58
1762880062.600634,1.47
1762880062.606762,1.42
1762880062.613036,1.4
1762880062.619382,1.4
1762880062.625603,1.36
1762880062.6319559,1.37
1762880062.638231,1.39
1762880062.644379,1.34
1762880062.6506188,1.41
1762880062.656693,1.4
1762880062.663022,1.36
1762880062.669367,1.42
1762880062.675648,1.39
1762880062.6817868,1.4
1762880062.687976,1.48
1762880062.6942332,1.43
1762880062.7006578,1.46
1762880062.706806,1.44
1762880062.712946,1.44
1762880062.719268,1.59
1762880062.725814,1.73
1762880062.7316911,2.34
1762880062.737931,3.16
1762880062.7442079,3.17
1762880062.7504032,3.17
1762880062.75675,3.07
1762880062.762816,1.15
1762880062.76914,0.82
1762880062.7757912,1.66
1762880062.7816498,1.65
1762880062.787921,1.36
1762880062.79424,1.34
1762880062.800437,1.48
1762880062.806679,1.49
1762880062.812944,1.36
1762880062.819184,1.4
1762880062.82771,1.39
1762880062.831746,1.35
1762880062.837934,1.4
1762880062.844408,1.38
1762880062.850354,1.47
1762880062.8566642,1.42
1762880062.862904,1.37
1762880062.869171,1.51
1762880062.875852,1.53
1762880062.881684,1.51
1762880062.894458,1.51
1762880062.89517,1.49
1762880062.9849222,1.56
1762880062.9871738,1.56
1762880062.987375,1.53
1762880062.987849,1.6
1762880062.988092,1.62
1762880062.988297,1.64
1762880062.988512,1.68
1762880062.988736,1.65
1762880062.988949,1.75
1762880062.9891572,1.79
1762880062.989373,1.71
1762880062.989603,1.79
1762880062.989803,1.84
1762880062.990051,1.79
1762880062.9902651,1.81
1762880062.99425,1.8
1762880063.000512,1.86
1762880063.0066922,1.82
1762880063.013002,1.75
1762880063.019219,1.76
1762880063.025725,1.64
1762880063.0317,1.6
1762880063.037992,1.58
1762880063.044153,1.49
1762880063.050483,1.44
1762880063.056654,1.4
1762880063.062953,1.42
1762880063.071469,1.47
1762880063.075426,1.41
1762880063.0817611,1.36
1762880063.087849,1.41
1762880063.094136,1.41
1762880063.100391,1.49
1762880063.1069849,1.46
1762880063.1128802,1.38
1762880063.120054,1.48
1762880063.1308439,1.46
1762880063.132511,1.42
1762880063.137834,1.51
1762880063.146888,1.47
1762880063.1505349,1.47
1762880063.158082,1.48
1762880063.162847,1.47
1762880063.1691499,1.53
1762880063.175832,1.46
1762880063.1815941,1.46
1762880063.1879349,1.55
1762880063.194127,1.49
1762880063.2003179,1.48
1762880063.2071831,1.52
1762880063.2128,1.48
1762880063.2190862,1.51
1762880063.226298,1.52
1762880063.231573,1.5
1762880063.237841,1.52
1762880063.244123,1.47
1762880063.250388,1.51
1762880063.256663,1.49
1762880063.2628422,1.46
1762880063.269012,1.56
1762880063.2753332,1.53
1762880063.2815192,1.5
1762880063.2878022,1.48
1762880063.2940538,1.44
1762880063.300351,1.52
1762880063.306549,1.52
1762880063.3128672,1.43
1762880063.319073,1.55
1762880063.3254411,1.57
1762880063.3317041,1.54
1762880063.338063,1.52
1762880063.3441129,1.48
1762880063.350519,1.63
1762880063.356638,1.69
1762880063.362981,1.56
1762880063.369279,1.67
1762880063.3756092,1.77
1762880063.38166,1.73
1762880063.388063,1.7
1762880063.3941078,1.65
1762880063.400471,1.73
1762880063.406705,1.63
1762880063.412898,1.47
1762880063.419144,1.49
1762880063.4254122,1.46
1762880063.431614,1.43
1762880063.438066,1.48
1762880063.444122,1.45
1762880063.450537,1.48
1762880063.456597,1.46
1762880063.4628851,1.45
1762880063.469096,1.48
1762880063.4753149,1.45
1762880063.4816499,1.49
1762880063.488093,1.51
1762880063.494385,1.43
1762880063.500392,1.51
1762880063.5065331,1.55
1762880063.512861,1.51
1762880063.519066,1.53
1762880063.525343,1.49
1762880063.5315359,1.58
1762880063.538136,1.89
1762880063.5443041,2.46
1762880063.550438,3.17
1762880063.5568068,3.17
1762880063.5629508,3.17
1762880063.569268,2.97
1762880063.575397,1.03
1762880063.581596,0.93
1762880063.588033,1.8
1762880063.594075,1.63
1762880063.600297,1.32
1762880063.6065369,1.42
1762880063.612799,1.47
1762880063.6191711,1.48
1762880063.625352,1.43
1762880063.631614,1.44
1762880063.637845,1.47
1762880063.644348,1.45
1762880063.650313,1.48
1762880063.656524,1.48
1762880063.6628869,1.47
1762880063.66917,1.52
1762880063.675509,1.48
1762880063.681581,1.48
1762880063.6878011,1.57
1762880063.694328,1.54
1762880063.700317,1.53
1762880063.70677,1.55
1762880063.712938,1.54
1762880063.719096,1.58
1762880063.72543,1.58
1762880063.73163,1.65
1762880063.737833,1.69
1762880063.7440739,1.64
1762880063.750436,1.76
1762880063.756515,1.91
1762880063.762756,1.76
1762880063.769068,1.66
1762880063.775672,1.78
1762880063.781538,1.84
1762880063.787831,1.84
1762880063.7940428,1.77
1762880063.8003452,1.81
1762880063.806465,1.86
1762880063.812879,1.8
1762880063.8191411,1.81
1762880063.825269,1.75
1762880063.831536,1.72
1762880063.8377101,1.73
1762880063.843987,1.61
1762880063.850243,1.56
1762880063.8564281,1.53
1762880063.8628302,1.52
1762880063.868971,1.46
1762880063.87533,1.4
1762880063.881634,1.39
1762880063.8878021,1.47
1762880063.893992,1.43
1762880063.900246,1.42
1762880063.9064589,1.44
1762880063.912789,1.38
1762880063.918964,1.48
1762880063.925523,1.48
1762880063.9315,1.47
1762880063.937692,1.52
1762880063.94396,1.45
1762880063.9502132,1.47
1762880063.956566,1.53
1762880063.9627829,1.45
1762880063.9690938,1.52
1762880063.976043,1.55
1762880063.9814458,1.48
1762880063.987721,1.52
1762880063.994,1.52
1762880064.00014,1.53
1762880064.0064662,1.55
1762880064.012743,1.51
1762880064.019135,1.52
1762880064.025346,1.52
1762880064.031533,1.55
1762880064.037753,1.56
1762880064.043933,1.49
1762880064.050188,1.49
1762880064.056417,1.51
1762880064.062724,1.49
1762880064.0690072,1.58
1762880064.075409,1.54
1762880064.0815098,1.5
1762880064.08795,1.59
1762880064.094038,1.52
1762880064.100411,1.49
1762880064.106463,1.55
1762880064.11268,1.53
1762880064.11895,1.52
1762880064.125427,1.53
1762880064.131598,1.52
1762880064.137769,1.55
1762880064.1439822,1.54
1762880064.150105,1.61
1762880064.1564329,1.78
1762880064.162806,1.8
1762880064.168958,1.74
1762880064.175358,1.51
1762880064.181638,1.64
1762880064.1878688,1.81
1762880064.194078,1.68
1762880064.200329,1.71
1762880064.206448,1.72
1762880064.2128232,1.52
1762880064.219093,1.56
1762880064.225302,1.54
1762880064.231589,1.48
1762880064.237679,1.5
1762880064.244073,1.46
1762880064.250112,1.51
1762880064.2564108,1.53
1762880064.262673,1.58
1762880064.268899,1.55
1762880064.27635,1.44
1762880064.2815511,1.54
1762880064.287702,1.55
1762880064.2938838,1.44
1762880064.3003762,1.54
1762880064.3063948,1.64
1762880064.312711,1.53
1762880064.319048,1.54
1762880064.325588,1.55
1762880064.331572,1.67
1762880064.337659,1.86
1762880064.3439848,2.15
1762880064.3503108,3.15
1762880064.3564029,3.17
1762880064.3625941,3.17
1762880064.368963,3.17
1762880064.375303,2.45
1762880064.3814359,0.82
1762880064.38764,1.13
1762880064.3944051,1.7
1762880064.4001112,1.58
1762880064.406388,1.39
1762880064.4126852,1.42
1762880064.419007,1.53
1762880064.425282,1.48
1762880064.431425,1.44
1762880064.437612,1.58
1762880064.444215,1.54
1762880064.45321,1.51
1762880064.462611,1.54
1762880064.462809,1.6
1762880064.487454,1.58
1762880064.501011,1.61
1762880064.504066,1.58
1762880064.506012,1.51
1762880064.506141,1.52
1762880064.50785,1.63
1762880064.507939,1.66
1762880064.5152771,1.61
1762880064.5187662,1.64
1762880064.525474,1.64
1762880064.531422,1.66
1762880064.537631,1.73
1762880064.543869,1.68
1762880064.5501492,1.7
1762880064.55636,1.81
1762880064.5626209,1.84
1762880064.568782,1.88
1762880064.575237,1.8
1762880064.581342,1.78
1762880064.587679,1.9
1762880064.593835,1.93
1762880064.600047,1.94
1762880064.606297,1.88
1762880064.612587,1.86
1762880064.618797,1.85
1762880064.625141,1.82
1762880064.631364,1.87
1762880064.637577,1.78
1762880064.644109,1.58
1762880064.650132,1.63
1762880064.656408,1.63
1762880064.6625621,1.52
1762880064.6689348,1.51
1762880064.675719,1.52
1762880064.681459,1.47
1762880064.687577,1.45
1762880064.694164,1.47
1762880064.700225,1.53
1762880064.706624,1.5
1762880064.71263,1.43
1762880064.71888,1.5
1762880064.725662,1.45
1762880064.7313511,1.48
1762880064.7376268,1.58
1762880064.743784,1.48
1762880064.7500732,1.52
1762880064.756426,1.58
1762880064.762569,1.52
1762880064.7687712,1.57
1762880064.7765021,1.52
1762880064.781431,1.46
1762880064.787909,1.56
1762880064.793778,1.57
1762880064.800191,1.55
1762880064.8063738,1.54
1762880064.812602,1.53
1762880064.8188212,1.56
1762880064.826234,1.57
1762880064.8316102,1.53
1762880064.837708,1.56
1762880064.843991,1.52
1762880064.850176,1.52
1762880064.85632,1.58
1762880064.8626392,1.55
1762880064.8688698,1.58
1762880064.8751411,1.47
1762880064.881341,1.47
1762880064.887609,1.56
1762880064.893897,1.51
1762880064.900365,1.54
1762880064.906267,1.63
1762880064.912506,1.55
1762880064.918808,1.58
1762880064.9252648,1.64
1762880064.931437,1.63
1762880064.937786,1.78
1762880064.943873,1.75
1762880064.950092,1.71
1762880064.956417,1.69
1762880064.962562,1.72
1762880064.968936,1.71
1762880064.975868,1.55
1762880064.981434,1.45
1762880064.987653,1.51
1762880064.993819,1.46
1762880065.0000918,1.48
1762880065.006221,1.5
1762880065.01263,1.41
1762880065.018804,1.51
1762880065.025515,1.45
1762880065.0312488,1.41
1762880065.0376692,1.52
1762880065.044045,1.43
1762880065.049943,1.43
1762880065.056351,1.52
1762880065.062515,1.46
1762880065.0688891,1.49
1762880065.075171,1.5
1762880065.081336,1.49
1762880065.087577,1.52
1762880065.093908,1.49
1762880065.1001759,1.6
1762880065.106352,1.88
1762880065.112501,2.39
1762880065.118874,3.17
1762880065.124985,3.17
1762880065.1313999,3.17
1762880065.137865,3.14
1762880065.1438432,1.38
1762880065.150142,0.82
1762880065.156333,1.66
1762880065.162431,1.69
1762880065.168942,1.36
1762880065.17501,1.35
1762880065.181203,1.46
1762880065.1875489,1.46
1762880065.1937642,1.39
1762880065.200122,1.43
1762880065.206228,1.47
1762880065.212577,1.43
1762880065.218665,1.47
1762880065.2254982,1.44
1762880065.231328,1.46
1762880065.237636,1.54
1762880065.243822,1.48
1762880065.250171,1.46
1762880065.256329,1.53
1762880065.262485,1.52
1762880065.2688599,1.54
1762880065.2750258,1.56
1762880065.281295,1.52
1762880065.287454,1.56
1762880065.293626,1.59
1762880065.299964,1.64
1762880065.306249,1.71
1762880065.3125288,1.68
1762880065.318775,1.64
1762880065.3250098,1.68
1762880065.331467,1.72
1762880065.337732,1.8
1762880065.343811,1.73
1762880065.350165,1.69
1762880065.356235,1.81
1762880065.3625689,1.84
1762880065.3686779,1.82
1762880065.375061,1.79
1762880065.3811169,1.77
1762880065.3877509,1.83
1762880065.3937962,1.78
1762880065.400026,1.65
1762880065.406471,1.58
1762880065.4124959,1.51
1762880065.4187799,1.58
1762880065.425,1.46
1762880065.431139,1.36
1762880065.437589,1.45
1762880065.443717,1.4
1762880065.4501052,1.38
1762880065.456223,1.38
1762880065.4623842,1.35
1762880065.468687,1.42
1762880065.475013,1.41
1762880065.4814222,1.41
1762880065.487595,1.39
1762880065.493712,1.33
1762880065.500072,1.42
1762880065.506319,1.43
1762880065.512539,1.4
1762880065.518702,1.46
1762880065.524981,1.47
1762880065.531293,1.48
1762880065.537622,1.37
1762880065.543752,1.39
1762880065.5499232,1.46
1762880065.556202,1.46
1762880065.562416,1.44
1762880065.568714,1.45
1762880065.574941,1.42
1762880065.581485,1.49
1762880065.5875142,1.49
1762880065.59373,1.48
1762880065.599947,1.46
1762880065.6065862,1.5
1762880065.612393,1.43
1762880065.6187258,1.45
1762880065.6249988,1.49
1762880065.631459,1.42
1762880065.637664,1.46
1762880065.643692,1.5
1762880065.6499572,1.56
1762880065.656221,1.39
1762880065.662425,1.35
1762880065.668658,1.46
1762880065.675068,1.59
1762880065.6813571,2.12
1762880065.6875992,1.53
1762880065.693782,0.97
1762880065.6999412,1.43
1762880065.7063,1.45
1762880065.712419,1.32
1762880065.718762,1.4
1762880065.7250078,1.38
1762880065.731352,1.53
1762880065.737657,1.71
1762880065.743793,1.52
1762880065.749904,1.56
1762880065.756171,1.75
1762880065.762315,1.75
1762880065.7687,1.68
1762880065.7753348,1.65
1762880065.7812989,1.62
1762880065.787512,1.52
1762880065.793615,1.49
1762880065.800166,1.48
1762880065.806169,1.5
1762880065.8124008,1.39
1762880065.818708,1.45
1762880065.82495,1.43
1762880065.831362,1.4
1762880065.837662,1.45
1762880065.843852,1.45
1762880065.8500018,1.45
1762880065.856145,1.48
1762880065.862388,1.45
1762880065.868664,1.49
1762880065.874905,1.51
1762880065.881275,1.5
1762880065.8876128,1.52
1762880065.89363,1.5
1762880065.89989,1.52
1762880065.906121,1.53
1762880065.91263,1.57
1762880065.9187021,1.97
1762880065.9256902,2.71
1762880065.9312708,3.17
1762880065.9374778,3.17
1762880065.9440699,3.17
1762880065.950024,2.73
1762880065.956525,0.88
1762880065.962334,1.06
1762880065.968595,1.84
1762880065.974947,1.67
1762880065.981345,1.3
1762880065.987369,1.37
1762880065.993618,1.47
1762880066.000057,1.46
1762880066.006361,1.46
1762880066.012367,1.48
1762880066.0184371,1.52
1762880066.035063,1.45
1762880066.074038,1.4
1762880066.0742168,1.5
1762880066.078558,1.54
1762880066.078711,1.59
1762880066.0794518,1.54
1762880066.080617,1.38
1762880066.080746,1.58
1762880066.081655,1.6
1762880066.082706,1.52
1762880066.0931299,1.56
1762880066.094192,1.6
1762880066.099793,1.58
1762880066.106362,1.63
1762880066.112244,1.61
1762880066.11842,1.69
1762880066.124825,1.72
1762880066.130987,1.65
1762880066.137237,1.74
1762880066.143469,1.78
1762880066.1499321,1.83
1762880066.156138,1.86
1762880066.162304,1.77
1762880066.168517,1.8
1762880066.174945,1.86
1762880066.181094,1.85
1762880066.187422,1.86
1762880066.193611,1.82
1762880066.199732,1.82
1762880066.2061079,1.8
1762880066.212459,1.7
1762880066.218626,1.68
1762880066.224839,1.64
1762880066.231182,1.58
1762880066.237345,1.57
1762880066.2434921,1.47
1762880066.2497869,1.45
1762880066.2563121,1.5
1762880066.262202,1.46
1762880066.268426,1.49
1762880066.275114,1.48
1762880066.2809741,1.42
1762880066.28717,1.5
1762880066.293431,1.47
1762880066.299691,1.49
1762880066.306015,1.53
1762880066.312164,1.45
1762880066.318523,1.52
1762880066.3248231,1.55
1762880066.3308978,1.48
1762880066.33726,1.5
1762880066.343442,1.49
1762880066.349677,1.55
1762880066.356282,1.6
1762880066.362198,1.5
1762880066.3684108,1.54
1762880066.3747,1.57
1762880066.38117,1.51
1762880066.3871841,1.56
1762880066.393502,1.57
1762880066.399729,1.54
1762880066.406253,1.56
1762880066.412312,1.51
1762880066.418605,1.51
1762880066.42513,1.53
1762880066.4311638,1.53
1762880066.437335,1.58
1762880066.4434838,1.52
1762880066.449839,1.5
1762880066.456,1.56
1762880066.4622679,1.52
1762880066.468504,1.59
1762880066.47475,1.56
1762880066.481056,1.49
1762880066.4872189,1.58
1762880066.4934359,1.51
1762880066.499638,1.47
1762880066.5067,1.57
1762880066.512175,1.59
1762880066.518521,1.57
1762880066.524841,1.55
1762880066.531009,1.53
1762880066.53736,1.58
1762880066.543535,1.57
1762880066.549695,1.55
1762880066.556496,1.58
1762880066.562195,1.53
1762880066.5684,1.57
1762880066.574751,1.59
1762880066.580877,1.64
1762880066.587305,1.71
1762880066.593337,1.64
1762880066.5996401,1.7
1762880066.606313,1.89
1762880066.612191,1.79
1762880066.618412,1.68
1762880066.6247098,1.69
1762880066.6309388,1.69
1762880066.6373692,1.67
1762880066.643429,1.54
1762880066.649749,1.52
1762880066.655945,1.59
1762880066.662136,1.52
1762880066.668444,1.52
1762880066.674748,1.51
1762880066.681024,1.53
1762880066.6872058,1.57
1762880066.693654,1.51
1762880066.6998699,1.52
1762880066.707413,1.51
1762880066.712277,1.5
1762880066.718519,1.6
1762880066.724747,1.59
1762880066.731013,1.53
1762880066.737184,1.61
1762880066.743649,1.58
1762880066.7498398,1.53
1762880066.757293,1.59
1762880066.762167,1.75
1762880066.768617,2.03
1762880066.7751198,2.65
1762880066.7810838,3.17
1762880066.78721,3.17
1762880066.793409,3.17
1762880066.799913,2.87
1762880066.806159,1.07
1762880066.812276,1.08
1762880066.81843,1.86
1762880066.8254101,1.75
1762880066.830981,1.44
1762880066.837069,1.51
1762880066.843393,1.53
1762880066.849808,1.53
1762880066.8559859,1.57
1762880066.862271,1.52
1762880066.868553,1.61
1762880066.874905,1.58
1762880066.8809621,1.5
1762880066.887378,1.59
1762880066.893829,1.59
1762880066.8998709,1.58
1762880066.90599,1.6
1762880066.912051,1.57
1762880066.9184918,1.6
1762880066.924753,1.64
1762880066.9308522,1.68
1762880066.937161,1.69
1762880066.94341,1.62
1762880066.949774,1.69
1762880066.955892,1.75
1762880066.96206,1.74
1762880066.968575,1.75
1762880066.975011,1.76
1762880066.981159,1.78
1762880066.987185,1.83
1762880066.993443,1.8
1762880066.99968,1.87
1762880067.006229,1.95
1762880067.012255,1.84
1762880067.01843,1.93
1762880067.0245981,1.98
1762880067.030841,1.93
1762880067.037201,1.99
1762880067.043446,1.95
1762880067.0495539,1.89
1762880067.056743,1.91
1762880067.0621388,1.79
1762880067.068529,1.82
1762880067.07483,1.76
1762880067.080904,1.64
1762880067.087134,1.68
1762880067.093457,1.61
1762880067.099592,1.58
1762880067.105949,1.62
1762880067.112073,1.54
1762880067.1183171,1.58
1762880067.1250088,1.63
1762880067.130943,1.55
1762880067.137103,1.62
1762880067.143729,1.53
1762880067.1495612,1.63
1762880067.155859,1.7
1762880067.162109,1.58
1762880067.168424,1.61
1762880067.174936,1.66
1762880067.1808078,1.64
1762880067.187123,1.69
1762880067.193303,1.65
1762880067.199573,1.65
1762880067.2061179,1.66
1762880067.2120562,1.64
1762880067.218317,1.76
1762880067.2245529,1.75
1762880067.23091,1.67
1762880067.237174,1.73
1762880067.243354,1.7
1762880067.249536,1.72
1762880067.2565398,1.76
1762880067.262044,1.7
1762880067.2684102,1.75
1762880067.2745972,1.7
1762880067.28074,1.65
1762880067.286947,1.77
1762880067.293273,1.74
1762880067.2994611,1.69
1762880067.306151,1.73
1762880067.31196,1.71
1762880067.318301,1.78
1762880067.324469,1.75
1762880067.330724,1.69
1762880067.3372118,1.76
1762880067.3434129,1.7
1762880067.3495948,1.74
1762880067.3560379,1.87
1762880067.362006,1.74
1762880067.3682911,1.71
1762880067.37466,1.77
1762880067.380918,1.79
1762880067.387351,1.93
1762880067.393383,1.91
1762880067.399698,1.88
1762880067.406927,1.96
1762880067.41206,1.96
1762880067.4183848,2.03
1762880067.424719,1.97
1762880067.430719,1.89
1762880067.4369721,2.01
1762880067.459417,1.91
1762880067.45956,1.74
1762880067.4596438,1.78
1762880067.467377,1.77
1762880067.471223,1.78
1762880067.479012,1.77
1762880067.482868,1.73
1762880067.492834,1.74
1762880067.493643,1.73
1762880067.499522,1.74
1762880067.506164,1.75
1762880067.512019,1.68
1762880067.518254,1.75
1762880067.524488,1.8
1762880067.5319529,1.74
1762880067.537202,1.79
1762880067.543285,1.79
1762880067.549626,1.75
1762880067.555846,1.82
1762880067.562112,1.82
1762880067.568457,1.87
1762880067.574705,2.05
1762880067.58087,2.56
1762880067.586952,3.17
1762880067.593218,3.17
1762880067.599488,3.18
1762880067.60607,3.17
1762880067.611899,2.48
1762880067.618434,1.17
1762880067.624655,1.58
1762880067.630697,1.98
1762880067.637164,1.84
1762880067.6432462,1.64
1762880067.649437,1.7
1762880067.656179,1.78
1762880067.661973,1.68
1762880067.6683269,1.71
1762880067.674422,1.76
1762880067.68068,1.72
1762880067.687278,1.74
1762880067.69345,1.72
1762880067.69959,1.73
1762880067.7058299,1.76
1762880067.711968,1.74
1762880067.7182982,1.81
1762880067.724457,1.82
1762880067.730752,1.72
1762880067.7369988,1.79
1762880067.743165,1.83
1762880067.7494888,1.76
1762880067.7562811,1.81
1762880067.761944,1.81
1762880067.768151,1.87
1762880067.774475,1.9
1762880067.780721,1.82
1762880067.787036,1.9
1762880067.793097,1.92
1762880067.79944,1.89
1762880067.805717,1.95
1762880067.811903,1.96
1762880067.818177,1.97
1762880067.824469,1.95
1762880067.830701,1.89
1762880067.837003,1.99
1762880067.843094,1.99
1762880067.849468,1.95
1762880067.855826,1.95
1762880067.861912,1.84
1762880067.868268,1.8
1762880067.874691,1.74
1762880067.880679,1.67
1762880067.88697,1.68
1762880067.893195,1.51
1762880067.899426,1.46
1762880067.906404,1.63
1762880067.911905,1.55
1762880067.9183428,1.46
1762880067.924396,1.47
1762880067.930668,1.46
1762880067.936942,1.51
1762880067.943208,1.44
1762880067.94943,1.43
1762880067.9559,1.52
1762880067.962086,1.43
1762880067.96813,1.44
1762880067.9744158,1.49
1762880067.980733,1.42
1762880067.9887118,1.47
1762880067.9931898,1.48
1762880067.9993632,1.44
1762880068.006353,1.49
1762880068.011868,1.48
1762880068.0180962,1.51
1762880068.024488,1.46
1762880068.030747,1.45
1762880068.036886,1.57
1762880068.043164,1.52
1762880068.079675,1.44
1762880068.07996,1.46
1762880068.080211,1.46
1762880068.080412,1.49
1762880068.080582,1.53
1762880068.080744,1.46
1762880068.086879,1.48
1762880068.093162,1.49
1762880068.0995982,1.44
1762880068.105685,1.44
1762880068.111895,1.43
1762880068.118143,1.43
1762880068.1245298,1.42
1762880068.130622,1.47
1762880068.136789,1.52
1762880068.1431282,1.47
1762880068.149396,1.39
1762880068.155723,1.45
1762880068.161788,1.52
1762880068.168179,1.6
1762880068.1743848,1.59
1762880068.180644,1.56
1762880068.187501,1.69
1762880068.193124,1.7
1762880068.199384,1.59
1762880068.2058592,1.56
1762880068.211835,1.58
1762880068.218128,1.52
1762880068.224629,1.4
1762880068.230597,1.35
1762880068.236913,1.41
1762880068.243111,1.34
1762880068.249331,1.25
1762880068.2558851,1.29
1762880068.261804,1.34
1762880068.268213,1.39
1762880068.274327,1.39
1762880068.280627,1.29
1762880068.286906,1.33
1762880068.293076,1.33
1762880068.299327,1.31
1762880068.306147,1.35
1762880068.3117912,1.34
1762880068.3179798,1.37
1762880068.324348,1.38
1762880068.330678,1.31
1762880068.3371048,1.36
1762880068.3433442,1.36
1762880068.34941,1.41
1762880068.355538,1.7
1762880068.3618162,2.3
1762880068.3681312,3.15
1762880068.37425,3.17
1762880068.380738,3.17
1762880068.387082,2.8
1762880068.393088,0.79
1762880068.399325,0.78
1762880068.405681,1.67
1762880068.4117591,1.43
1762880068.4180539,1.16
1762880068.4243221,1.27
1762880068.430607,1.3
1762880068.436801,1.3
1762880068.44314,1.24
1762880068.449286,1.22
1762880068.455798,1.29
1762880068.461714,1.26
1762880068.468087,1.29
1762880068.474357,1.32
1762880068.48074,1.25
1762880068.486948,1.29
1762880068.493249,1.31
1762880068.499367,1.3
1762880068.505779,1.36
1762880068.511643,1.35
1762880068.5181608,1.34
1762880068.5242162,1.37
1762880068.530636,1.28
1762880068.5368881,1.38
1762880068.543079,1.43
1762880068.5493681,1.39
1762880068.555795,1.46
1762880068.561824,1.49
1762880068.568081,1.48
1762880068.5742831,1.51
1762880068.580648,1.52
1762880068.586996,1.57
1762880068.592986,1.57
1762880068.599185,1.58
1762880068.605589,1.61
1762880068.6117601,1.53
1762880068.618138,1.62
1762880068.624253,1.69
1762880068.630553,1.58
1762880068.636744,1.56
1762880068.643104,1.49
1762880068.6493828,1.48
1762880068.655617,1.49
1762880068.6617448,1.35
1762880068.668267,1.31
1762880068.674678,1.28
1762880068.680536,1.23
1762880068.686962,1.25
1762880068.693203,1.22
1762880068.699313,1.18
1762880068.705489,1.22
1762880068.711691,1.19
1762880068.718025,1.21
1762880068.724282,1.23
1762880068.7306051,1.13
1762880068.736918,1.17
1762880068.74308,1.2
1762880068.749366,1.22
1762880068.7555509,1.26
1762880068.761774,1.17
1762880068.768086,1.2
1762880068.774483,1.31
1762880068.780472,1.27
1762880068.786855,1.25
1762880068.792934,1.24
1762880068.799241,1.27
1762880068.805853,1.3
1762880068.811643,1.25
1762880068.818092,1.3
1762880068.824369,1.28
1762880068.830688,1.24
1762880068.8367748,1.33
1762880068.8430002,1.29
1762880068.849208,1.23
1762880068.8556118,1.3
1762880068.861759,1.24
1762880068.867996,1.27
1762880068.874332,1.32
1762880068.880507,1.26
1762880068.886914,1.27
1762880068.8930502,1.26
1762880068.899252,1.3
1762880068.905447,1.34
1762880068.911639,1.25
1762880068.917973,1.22
1762880068.9242182,1.26
1762880068.9305081,1.31
1762880068.936704,1.33
1762880068.942867,1.27
1762880068.9491332,1.24
1762880068.9554381,1.29
1762880068.961678,1.26
1762880068.96801,1.37
1762880068.974242,1.46
1762880068.980499,1.38
1762880068.986936,1.49
1762880068.992843,1.55
1762880068.999161,1.49
1762880069.0053902,1.55
1762880069.011602,1.45
1762880069.017953,1.46
1762880069.0304189,1.4
1762880069.032985,1.27
