timestamp,ecg_value
1762879984.922634,1.86
1762879984.928739,1.82
1762879984.9350731,1.79
1762879984.941062,1.77
1762879984.9472451,1.76
1762879984.9535859,1.76
1762879984.9598951,1.75
1762879984.966024,1.73
1762879984.972297,1.69
1762879984.978524,1.64
1762879984.984799,1.61
1762879984.9910378,1.63
1762879984.997442,1.67
1762879985.00389,1.71
1762879985.009811,1.74
1762879985.016116,1.74
1762879985.022354,1.69
1762879985.031266,1.5
1762879985.0426319,1.5
1762879985.098531,1.49
1762879985.098836,1.41
1762879985.099034,1.46
1762879985.0992079,1.42
1762879985.099303,1.42
1762879985.0994968,1.47
1762879985.0996559,1.37
1762879985.099753,1.38
1762879985.099839,1.45
1762879985.0999758,1.43
1762879985.103534,1.46
1762879985.112759,1.43
1762879985.116565,1.38
1762879985.1225102,1.46
1762879985.1284091,1.47
1762879985.13469,1.49
1762879985.140921,1.48
1762879985.147161,1.4
1762879985.154117,1.51
1762879985.15982,1.5
1762879985.165975,1.5
1762879985.172268,1.54
1762879985.178417,1.45
1762879985.1849759,1.54
1762879985.190943,1.85
1762879985.1971788,2.36
1762879985.203922,1.55
1762879985.2097101,0.7
1762879985.2159932,1.23
1762879985.222239,1.68
1762879985.2284448,1.36
1762879985.23471,1.32
1762879985.240983,1.5
1762879985.247348,1.46
1762879985.2540119,1.47
1762879985.25969,1.51
1762879985.266044,1.53
1762879985.2722309,1.62
1762879985.278496,1.63
1762879985.2856162,1.58
1762879985.2909598,1.8
1762879985.297167,2.02
1762879985.303869,2.11
1762879985.3096588,1.4
1762879985.315938,1.23
1762879985.3222752,1.65
1762879985.328423,1.55
1762879985.334754,1.3
1762879985.3410938,1.36
1762879985.347299,1.39
1762879985.353411,1.49
1762879985.359605,1.47
1762879985.3659441,1.37
1762879985.372174,1.56
1762879985.3784802,1.46
1762879985.3847208,1.33
1762879985.390989,1.41
1762879985.397247,1.43
1762879985.403828,1.47
1762879985.409719,1.49
1762879985.41592,1.43
1762879985.422177,1.47
1762879985.4283352,1.43
1762879985.434945,1.42
1762879985.440852,1.53
1762879985.447093,1.52
1762879985.45346,1.67
1762879985.4596548,2.12
1762879985.465832,2.97
1762879985.472144,3.17
1762879985.4783092,3.17
1762879985.4847412,3.17
1762879985.490873,2.23
1762879985.4971101,0.68
1762879985.5034199,1.35
1762879985.509611,1.84
1762879985.515868,1.38
1762879985.522109,1.32
1762879985.528325,1.55
1762879985.535084,1.5
1762879985.540846,1.34
1762879985.547117,1.32
1762879985.5535,1.46
1762879985.5596,1.49
1762879985.565984,1.37
1762879985.572181,1.46
1762879985.5783439,1.5
1762879985.584598,1.49
1762879985.590892,1.54
1762879985.597126,1.46
1762879985.6034298,1.51
1762879985.609652,1.55
1762879985.615983,1.48
1762879985.622134,1.59
1762879985.628428,1.59
1762879985.634746,1.53
1762879985.6408231,1.6
1762879985.647114,1.6
1762879985.653381,1.62
1762879985.65955,1.65
1762879985.665931,1.63
1762879985.672082,1.73
1762879985.67839,1.73
1762879985.684824,1.72
1762879985.690897,1.8
1762879985.697109,1.81
1762879985.703441,1.85
1762879985.7096572,1.87
1762879985.715968,1.69
1762879985.722367,1.84
1762879985.7283719,1.89
1762879985.7350452,1.73
1762879985.740869,1.73
1762879985.7473102,1.68
1762879985.7533388,1.61
1762879985.759739,1.63
1762879985.7659361,1.57
1762879985.7721448,1.63
1762879985.778379,1.65
1762879985.7849731,1.94
1762879985.7908459,1.69
1762879985.797301,0.96
1762879985.803649,1.07
1762879985.80959,1.46
1762879985.815844,1.33
1762879985.822152,1.34
1762879985.828525,1.39
1762879985.8345668,1.39
1762879985.840832,1.47
1762879985.847085,1.4
1762879985.853374,1.43
1762879985.8597178,1.5
1762879985.865834,1.42
1762879985.872247,1.47
1762879985.8783581,1.48
1762879985.8853161,1.47
1762879985.890827,1.54
1762879985.897111,1.49
1762879985.903579,1.52
1762879985.909703,1.58
1762879985.915822,1.48
1762879985.922105,1.5
1762879985.928364,1.52
1762879985.935006,1.52
1762879985.940855,1.57
1762879985.9471612,1.46
1762879985.953422,1.49
1762879985.959698,1.54
1762879985.96585,1.47
1762879985.972338,1.54
1762879985.978326,1.52
1762879985.984816,1.56
1762879985.990832,1.72
1762879985.997329,1.61
1762879986.003497,1.61
1762879986.009571,1.74
1762879986.016041,1.72
1762879986.022093,1.78
1762879986.028332,1.68
1762879986.034848,1.65
1762879986.040937,1.65
1762879986.0472069,1.48
1762879986.053389,1.46
1762879986.059787,1.49
1762879986.0658612,1.34
1762879986.072451,1.42
1762879986.078364,1.45
1762879986.084948,1.43
1762879986.090827,1.5
1762879986.097049,1.43
1762879986.10342,1.44
1762879986.1096241,1.47
1762879986.115871,1.41
1762879986.122025,1.48
1762879986.128387,1.48
1762879986.1351738,1.43
1762879986.1408918,1.5
1762879986.147146,1.5
1762879986.153333,1.51
1762879986.159661,1.54
1762879986.1659222,1.53
1762879986.1720572,1.74
1762879986.178293,2.18
1762879986.1848152,3.04
1762879986.190819,3.17
1762879986.1970959,3.17
1762879986.203294,3.16
1762879986.209602,1.93
1762879986.215737,0.69
1762879986.222039,1.51
1762879986.228294,1.84
1762879986.234747,1.38
1762879986.2408829,1.35
1762879986.2470882,1.48
1762879986.253367,1.49
1762879986.259798,1.45
1762879986.265793,1.38
1762879986.272042,1.48
1762879986.278283,1.44
1762879986.284572,1.36
1762879986.290785,1.52
1762879986.297101,1.54
1762879986.3034408,1.49
1762879986.309607,1.51
1762879986.315839,1.41
1762879986.322164,1.52
1762879986.328254,1.58
1762879986.334899,1.51
1762879986.340823,1.55
1762879986.34707,1.55
1762879986.353531,1.59
1762879986.359715,1.62
1762879986.3657548,1.57
1762879986.3722172,1.64
1762879986.378218,1.66
1762879986.384574,1.66
1762879986.390678,1.7
1762879986.397076,1.71
1762879986.403308,1.77
1762879986.4096918,1.77
1762879986.4157472,1.72
1762879986.422029,1.85
1762879986.4282439,1.85
1762879986.4345012,1.76
1762879986.440694,1.84
1762879986.447231,1.82
1762879986.453831,1.8
1762879986.459581,1.75
1762879986.465792,1.62
1762879986.4720151,1.63
1762879986.478364,1.62
1762879986.48459,1.51
1762879986.490753,1.51
1762879986.4971058,1.43
1762879986.5033011,1.46
1762879986.5095859,1.52
1762879986.515887,1.39
1762879986.5220091,1.43
1762879986.528224,1.45
1762879986.534513,1.4
1762879986.5407202,1.45
1762879986.5469692,1.4
1762879986.553171,1.46
1762879986.5594912,1.51
1762879986.565763,1.41
1762879986.572154,1.46
1762879986.578322,1.48
1762879986.585109,1.45
1762879986.608284,1.52
1762879986.626957,1.5
1762879986.6561038,1.47
1762879986.660515,1.53
1762879986.660625,1.51
1762879986.660713,1.51
1762879986.6611369,1.51
1762879986.66139,1.48
1762879986.66165,1.55
1762879986.66176,1.51
1762879986.6618721,1.5
1762879986.661952,1.56
1762879986.665729,1.49
1762879986.6718562,1.56
1762879986.678179,1.58
1762879986.684418,1.57
1762879986.69067,1.69
1762879986.696955,1.61
1762879986.703116,1.65
1762879986.7093859,1.8
1762879986.715704,1.72
1762879986.7219589,1.69
1762879986.728333,1.68
1762879986.7346618,1.62
1762879986.740752,1.59
1762879986.7471519,1.48
1762879986.753227,1.43
1762879986.7593548,1.5
1762879986.7656991,1.44
1762879986.7720819,1.47
1762879986.778168,1.44
1762879986.784448,1.33
1762879986.7906718,1.5
1762879986.7969558,1.51
1762879986.803154,1.47
1762879986.809346,1.5
1762879986.815725,1.44
1762879986.822038,1.47
1762879986.828246,1.48
1762879986.8344471,1.47
1762879986.8406882,1.55
1762879986.847038,1.49
1762879986.853167,1.5
1762879986.859345,1.56
1762879986.8656929,1.49
1762879986.871967,1.59
1762879986.878123,1.76
1762879986.884442,2.44
1762879986.8906891,3.17
1762879986.89697,3.17
1762879986.903202,3.17
1762879986.909556,3.08
1762879986.915545,1.2
1762879986.921888,0.91
1762879986.928064,1.76
1762879986.934367,1.67
1762879986.940594,1.38
1762879986.946928,1.34
1762879986.953179,1.47
1762879986.9593349,1.55
1762879986.9656909,1.41
1762879986.971862,1.45
1762879986.978111,1.5
1762879986.9843578,1.44
1762879986.990585,1.52
1762879986.99689,1.49
1762879987.0032861,1.43
1762879987.009465,1.52
1762879987.015747,1.49
1762879987.021891,1.51
1762879987.028126,1.52
1762879987.034709,1.55
1762879987.041159,1.63
1762879987.046874,1.56
1762879987.0532029,1.54
1762879987.05937,1.61
1762879987.065897,1.59
1762879987.071899,1.66
1762879987.078269,1.67
1762879987.084434,1.61
1762879987.090633,1.71
1762879987.0969129,1.71
1762879987.103177,1.73
1762879987.1095722,1.82
1762879987.115846,1.76
1762879987.121953,1.81
1762879987.128129,1.84
1762879987.134392,1.78
1762879987.140557,1.83
1762879987.1468349,1.81
1762879987.153153,1.8
1762879987.159337,1.81
1762879987.165707,1.69
1762879987.171774,1.69
1762879987.178048,1.64
1762879987.18441,1.52
1762879987.190648,1.57
1762879987.196973,1.51
1762879987.203289,1.43
1762879987.209502,1.52
1762879987.215543,1.47
1762879987.2218812,1.47
1762879987.228052,1.47
1762879987.2348092,1.4
1762879987.240576,1.5
1762879987.246871,1.48
1762879987.253082,1.44
1762879987.259576,1.52
1762879987.265714,1.47
1762879987.2719018,1.5
1762879987.2782989,1.51
1762879987.284961,1.47
1762879987.290644,1.56
1762879987.29685,1.52
1762879987.303093,1.48
1762879987.3095171,1.54
1762879987.315733,1.47
1762879987.322029,1.55
1762879987.328118,1.56
1762879987.33457,1.5
1762879987.340493,1.57
1762879987.346813,1.53
1762879987.353181,1.52
1762879987.359471,1.59
1762879987.365532,1.5
1762879987.3719711,1.54
1762879987.3779771,1.59
1762879987.384372,1.49
1762879987.3906581,1.54
1762879987.3968792,1.53
1762879987.4032278,1.57
1762879987.4095201,1.7
1762879987.415963,1.61
1762879987.421899,1.66
1762879987.42835,1.79
1762879987.4347131,1.71
1762879987.4405062,1.74
1762879987.446944,1.69
1762879987.453054,1.68
1762879987.459588,1.67
1762879987.4656441,1.45
1762879987.471753,1.48
1762879987.477996,1.55
1762879987.4850361,1.42
1762879987.4905238,1.47
1762879987.496777,1.5
1762879987.503045,1.45
1762879987.509344,1.47
1762879987.515687,1.42
1762879987.521743,1.46
1762879987.527988,1.49
1762879987.534301,1.43
1762879987.540522,1.52
1762879987.546707,1.5
1762879987.5529711,1.43
1762879987.5591838,1.52
1762879987.565601,1.52
1762879987.571719,1.52
1762879987.577976,1.53
1762879987.584173,1.46
1762879987.590511,1.58
1762879987.596839,1.72
1762879987.603018,2.11
1762879987.609231,3.07
1762879987.6155672,3.17
1762879987.621763,3.17
1762879987.6280022,3.17
1762879987.6343,2.08
1762879987.6404538,0.79
1762879987.646875,1.43
1762879987.6529658,1.77
1762879987.659192,1.53
1762879987.665525,1.34
1762879987.671762,1.44
1762879987.6780748,1.52
1762879987.684683,1.43
1762879987.6905248,1.47
1762879987.696758,1.47
1762879987.702961,1.47
1762879987.7091289,1.52
1762879987.715501,1.45
1762879987.7218409,1.48
1762879987.728232,1.52
1762879987.734391,1.47
1762879987.740581,1.58
1762879987.746756,1.57
1762879987.752971,1.49
1762879987.759448,1.56
1762879987.765588,1.55
1762879987.771948,1.6
1762879987.7780612,1.65
1762879987.7843788,1.6
1762879987.7905438,1.65
1762879987.796739,1.64
1762879987.802996,1.62
1762879987.809404,1.73
1762879987.815528,1.74
1762879987.8219562,1.75
1762879987.8281448,1.77
1762879987.8343701,1.74
1762879987.8404632,1.84
1762879987.846792,1.8
1762879987.8529978,1.76
1762879987.859183,1.86
1762879987.8654652,1.78
1762879987.871671,1.76
1762879987.878486,1.81
1762879987.8844411,1.71
1762879987.890469,1.74
1762879987.8966908,1.65
1762879987.902891,1.56
1762879987.909214,1.57
1762879987.9154408,1.46
1762879987.921715,1.52
1762879987.927996,1.52
1762879987.934977,1.41
1762879987.940407,1.51
1762879987.946656,1.49
1762879987.952947,1.42
1762879987.9591942,1.51
1762879987.9657788,1.46
1762879987.971572,1.47
1762879987.977927,1.5
1762879987.984498,1.43
1762879987.990361,1.51
1762879987.996601,1.51
1762879988.002954,1.45
1762879988.009419,1.56
1762879988.015496,1.53
1762879988.0216599,1.51
1762879988.028065,1.51
1762879988.035276,1.48
1762879988.040422,1.62
1762879988.046707,1.56
1762879988.0530229,1.47
1762879988.059498,1.55
1762879988.06543,1.52
1762879988.071755,1.52
1762879988.0779,1.56
1762879988.084524,1.46
1762879988.0904179,1.54
1762879988.096658,1.54
1762879988.1029198,1.47
1762879988.109206,1.61
1762879988.115547,1.61
1762879988.12181,1.6
1762879988.128055,1.66
1762879988.134252,1.67
1762879988.14044,1.76
1762879988.146688,1.75
1762879988.152993,1.65
1762879988.159262,1.74
1762879988.165424,1.63
1762879988.180161,1.48
1762879988.183788,1.51
1762879988.184254,1.43
1762879988.1968992,1.47
1762879988.221514,1.45
1762879988.239923,1.41
1762879988.2434182,1.49
1762879988.2435892,1.41
1762879988.243687,1.4
1762879988.243747,1.49
1762879988.243808,1.45
1762879988.243872,1.45
1762879988.246568,1.42
1762879988.2537332,1.42
1762879988.2591,1.5
1762879988.265367,1.45
1762879988.271549,1.48
1762879988.277796,1.54
1762879988.284262,1.45
1762879988.290338,1.52
1762879988.296721,1.51
1762879988.302881,1.56
1762879988.3091042,1.89
1762879988.315413,2.4
1762879988.321575,3.16
1762879988.32787,3.17
1762879988.3341491,3.17
1762879988.340278,3.12
1762879988.346604,1.36
1762879988.3530161,0.84
1762879988.359204,1.69
1762879988.3654232,1.65
1762879988.371715,1.32
1762879988.377873,1.38
1762879988.385858,1.44
1762879988.39043,1.47
1762879988.3966131,1.42
1762879988.402946,1.4
1762879988.409077,1.47
1762879988.41536,1.39
1762879988.4217222,1.43
1762879988.427861,1.53
1762879988.43429,1.46
1762879988.440266,1.49
1762879988.4467561,1.5
1762879988.452859,1.46
1762879988.459015,1.52
1762879988.4654238,1.47
1762879988.47169,1.5
1762879988.477827,1.62
1762879988.484797,1.53
1762879988.490331,1.58
1762879988.496572,1.59
1762879988.5028539,1.59
1762879988.509017,1.67
1762879988.515619,1.6
1762879988.521614,1.66
1762879988.528109,1.74
1762879988.5348248,1.68
1762879988.540342,1.73
1762879988.5466108,1.75
1762879988.552895,1.73
1762879988.559177,1.8
1762879988.5653791,1.74
1762879988.571554,1.77
1762879988.577984,1.85
1762879988.584387,1.71
1762879988.590569,1.73
1762879988.596575,1.72
1762879988.602885,1.61
1762879988.609164,1.63
1762879988.6153758,1.52
1762879988.621602,1.48
1762879988.627807,1.53
1762879988.635123,1.43
1762879988.64022,1.47
1762879988.6465878,1.47
1762879988.652971,1.4
1762879988.6591518,1.49
1762879988.665299,1.43
1762879988.671544,1.43
1762879988.6778612,1.45
1762879988.684157,1.38
1762879988.690302,1.46
1762879988.696485,1.49
1762879988.702806,1.43
1762879988.7090838,1.51
1762879988.7153542,1.46
1762879988.7218308,1.49
1762879988.728111,1.57
1762879988.734188,1.46
1762879988.740321,1.5
1762879988.746521,1.52
1762879988.752987,1.48
1762879988.759265,1.52
1762879988.7653902,1.49
1762879988.771799,1.51
1762879988.777969,1.56
1762879988.7843552,1.48
1762879988.7904189,1.51
1762879988.796523,1.51
1762879988.80286,1.44
1762879988.809355,1.54
1762879988.815423,1.55
1762879988.821734,1.59
1762879988.827947,1.65
1762879988.835597,1.53
1762879988.8403351,1.66
1762879988.846507,1.74
1762879988.852997,1.7
1762879988.85902,1.74
1762879988.865324,1.67
1762879988.8717718,1.61
1762879988.877943,1.56
1762879988.884091,1.43
1762879988.8902888,1.46
1762879988.89643,1.44
1762879988.902781,1.37
1762879988.90903,1.48
1762879988.915332,1.42
1762879988.921686,1.37
1762879988.928032,1.48
1762879988.934276,1.4
1762879988.940236,1.43
1762879988.946482,1.47
1762879988.9527721,1.42
1762879988.9591281,1.46
1762879988.965249,1.41
1762879988.971495,1.4
1762879988.9778829,1.53
1762879988.983982,1.47
1762879988.990187,1.49
1762879988.996385,1.5
1762879989.0028028,1.48
1762879989.0089421,1.7
1762879989.015291,1.99
1762879989.021607,2.76
1762879989.02777,3.17
1762879989.0341492,3.17
1762879989.040232,3.17
1762879989.046392,2.54
1762879989.0527391,0.76
1762879989.058934,1.22
1762879989.065291,1.78
1762879989.071358,1.46
1762879989.077947,1.33
1762879989.083977,1.4
1762879989.0902662,1.45
1762879989.096429,1.4
1762879989.102731,1.38
1762879989.1090581,1.49
1762879989.115245,1.43
1762879989.121577,1.43
1762879989.1279109,1.48
1762879989.134345,1.41
1762879989.1402612,1.49
1762879989.146411,1.51
1762879989.152663,1.44
1762879989.158911,1.54
1762879989.165287,1.5
1762879989.1714811,1.48
1762879989.1778078,1.52
1762879989.18408,1.51
1762879989.190239,1.6
1762879989.196414,1.61
1762879989.202761,1.52
1762879989.208941,1.62
1762879989.2152472,1.63
1762879989.221492,1.64
1762879989.227735,1.7
1762879989.234445,1.66
1762879989.240382,1.74
1762879989.2464,1.78
1762879989.252767,1.68
1762879989.2593431,1.75
1762879989.265221,1.8
1762879989.2715719,1.77
1762879989.2778938,1.79
1762879989.284256,1.74
1762879989.290331,1.76
1762879989.2963588,1.73
1762879989.3027258,1.62
1762879989.309132,1.65
1762879989.315246,1.52
1762879989.321399,1.46
1762879989.3278568,1.55
1762879989.3339698,1.45
1762879989.340226,1.44
1762879989.3463402,1.45
1762879989.352726,1.4
1762879989.358898,1.48
1762879989.365217,1.41
1762879989.371385,1.39
1762879989.377694,1.49
1762879989.383991,1.43
1762879989.3901749,1.46
1762879989.396312,1.49
1762879989.4026392,1.44
1762879989.4088619,1.5
1762879989.415761,1.41
1762879989.421603,1.46
1762879989.427841,1.58
1762879989.433949,1.45
1762879989.44015,1.44
1762879989.446353,1.52
1762879989.452713,1.44
1762879989.458869,1.53
1762879989.465183,1.54
1762879989.4713228,1.48
1762879989.477942,1.53
1762879989.48393,1.49
1762879989.490162,1.53
1762879989.496381,1.54
1762879989.50266,1.43
1762879989.5089521,1.52
1762879989.51515,1.54
1762879989.5214632,1.51
1762879989.52769,1.64
1762879989.534762,1.61
1762879989.5403872,1.61
1762879989.546328,1.69
1762879989.55278,1.68
1762879989.558978,1.8
1762879989.565137,1.71
1762879989.5714471,1.63
1762879989.5778618,1.67
1762879989.5839732,1.48
1762879989.590179,1.46
1762879989.5963352,1.5
1762879989.6025531,1.38
1762879989.609034,1.41
1762879989.615104,1.43
1762879989.6215072,1.44
1762879989.6278532,1.48
1762879989.633914,1.36
1762879989.640128,1.43
1762879989.646452,1.5
1762879989.652726,1.39
1762879989.658893,1.45
1762879989.6651661,1.46
1762879989.6713212,1.43
1762879989.677801,1.5
1762879989.683872,1.44
1762879989.6900868,1.5
1762879989.696324,1.53
1762879989.7028039,1.42
1762879989.708849,1.52
1762879989.715034,1.69
1762879989.721419,2.02
1762879989.727668,2.93
1762879989.73396,3.17
1762879989.740111,3.17
1762879989.746259,3.17
1762879989.752487,2.31
1762879989.758838,0.75
1762879989.7651489,1.28
1762879989.771366,1.83
1762879989.777706,1.55
1762879989.783844,1.27
1762879989.7900429,1.42
1762879989.796247,1.52
1762879989.802567,1.38
1762879989.808842,1.45
1762879989.81506,1.46
1762879989.8214662,1.43
1762879989.827494,1.51
1762879989.834185,1.44
1762879989.839987,1.44
1762879989.8462222,1.51
1762879989.8524601,1.45
1762879989.858733,1.53
1762879989.865382,1.53
1762879989.871287,1.5
1762879989.877517,1.58
1762879989.894753,1.52
1762879989.912395,1.53
1762879989.933156,1.63
1762879989.93326,1.57
1762879989.933332,1.63
1762879989.9334002,1.6
1762879989.933467,1.58
1762879989.933533,1.73
1762879989.9387121,1.7
1762879989.943827,1.69
1762879989.947513,1.75
1762879989.952543,1.72
1762879989.958754,1.79
1762879989.968503,1.76
1762879989.9712179,1.73
1762879989.977463,1.87
1762879989.9838002,1.8
1762879989.99005,1.74
1762879989.996481,1.77
1762879990.0025752,1.69
1762879990.008716,1.71
1762879990.01505,1.63
1762879990.021209,1.52
1762879990.0276082,1.58
1762879990.034029,1.5
1762879990.040011,1.47
1762879990.046339,1.49
1762879990.052543,1.4
1762879990.058796,1.46
1762879990.0650702,1.48
1762879990.07133,1.43
1762879990.07752,1.47
1762879990.08378,1.4
1762879990.090132,1.44
1762879990.1124392,1.5
1762879990.1338508,1.43
1762879990.135211,1.49
1762879990.135384,1.49
1762879990.135517,1.46
1762879990.135663,1.54
1762879990.135808,1.49
1762879990.175189,1.49
1762879990.175601,1.54
1762879990.1757529,1.49
1762879990.175926,1.55
1762879990.176075,1.53
1762879990.1762218,1.47
1762879990.1799831,1.57
1762879990.18524,1.52
1762879990.1906571,1.51
1762879990.196639,1.55
1762879990.202583,1.48
1762879990.208788,1.51
1762879990.217746,1.52
1762879990.221225,1.48
1762879990.227478,1.58
1762879990.234011,1.59
1762879990.239895,1.61
1762879990.2463841,1.6
1762879990.252479,1.58
1762879990.258849,1.82
1762879990.265158,1.82
1762879990.271177,1.66
1762879990.2776058,1.71
1762879990.283863,1.65
1762879990.289946,1.58
1762879990.296243,1.53
1762879990.3024251,1.43
1762879990.308637,1.48
1762879990.31502,1.46
1762879990.3212001,1.4
1762879990.3273768,1.49
1762879990.333697,1.4
1762879990.340008,1.38
1762879990.346048,1.45
1762879990.3523278,1.39
1762879990.358748,1.47
1762879990.365045,1.5
1762879990.371125,1.44
1762879990.377407,1.48
1762879990.3837628,1.46
1762879990.38996,1.49
1762879990.396152,1.53
1762879990.4024389,1.46
1762879990.408658,1.51
1762879990.415348,1.5
1762879990.4212182,1.56
1762879990.427454,1.85
1762879990.433702,2.36
1762879990.439926,3.16
1762879990.446251,3.17
1762879990.452458,3.17
1762879990.458681,3.14
1762879990.465027,1.41
1762879990.4711502,0.75
1762879990.477448,1.72
1762879990.4840581,1.74
1762879990.489911,1.33
1762879990.496106,1.38
1762879990.50244,1.46
1762879990.5087528,1.5
1762879990.514967,1.44
1762879990.5212622,1.41
1762879990.52747,1.51
1762879990.533678,1.46
1762879990.539924,1.45
1762879990.546205,1.52
1762879990.5524611,1.46
1762879990.558669,1.5
1762879990.5667698,1.52
1762879990.571243,1.49
1762879990.577541,1.58
1762879990.5837069,1.52
1762879990.590074,1.52
1762879990.5962849,1.62
1762879990.602581,1.55
1762879990.6088252,1.61
1762879990.616197,1.67
1762879990.621226,1.6
1762879990.6275358,1.65
1762879990.634277,1.64
1762879990.63988,1.71
1762879990.6461282,1.77
1762879990.652447,1.69
1762879990.658726,1.77
1762879990.6649458,1.82
1762879990.671137,1.74
1762879990.677381,1.79
1762879990.6836731,1.77
1762879990.689963,1.79
1762879990.6962,1.86
1762879990.702383,1.75
1762879990.7087219,1.76
1762879990.715141,1.74
1762879990.721169,1.6
1762879990.7275531,1.63
1762879990.7336771,1.58
1762879990.740003,1.52
1762879990.7462158,1.52
1762879990.752526,1.45
1762879990.758826,1.51
1762879990.764875,1.51
1762879990.7713568,1.41
1762879990.777504,1.48
1762879990.7836869,1.45
1762879990.789911,1.46
1762879990.796124,1.52
1762879990.8024058,1.44
1762879990.808605,1.5
1762879990.8149672,1.53
1762879990.821342,1.45
1762879990.82752,1.52
1762879990.833643,1.52
1762879990.83985,1.49
1762879990.8461921,1.53
1762879990.8524742,1.47
1762879990.858738,1.55
1762879990.864929,1.6
1762879990.8712409,1.5
1762879990.877459,1.55
1762879990.883662,1.54
1762879990.8900118,1.52
1762879990.896097,1.56
1762879990.902387,1.49
1762879990.908823,1.5
1762879990.915875,1.53
1762879990.921328,1.51
1762879990.92753,1.56
1762879990.9337852,1.48
1762879990.939997,1.47
1762879990.946111,1.56
1762879990.952474,1.49
1762879990.958674,1.6
1762879990.964948,1.65
1762879990.971272,1.57
1762879990.977528,1.62
1762879990.98366,1.73
1762879990.989861,1.8
1762879990.996014,1.78
1762879991.002371,1.62
1762879991.0085618,1.66
1762879991.016404,1.65
1762879991.0212889,1.47
1762879991.027444,1.49
1762879991.0338361,1.44
1762879991.0399392,1.38
1762879991.046089,1.49
1762879991.0523782,1.42
1762879991.058562,1.43
1762879991.06545,1.47
1762879991.071285,1.42
1762879991.077451,1.45
1762879991.083603,1.42
1762879991.089851,1.39
1762879991.0961971,1.51
1762879991.102418,1.48
1762879991.1086552,1.49
1762879991.11502,1.49
1762879991.121255,1.44
1762879991.127549,1.54
1762879991.13362,1.5
1762879991.139951,1.48
1762879991.146014,1.66
1762879991.1524322,1.77
1762879991.158645,2.35
1762879991.164911,3.16
1762879991.1712189,3.17
1762879991.177388,3.17
1762879991.183627,3.07
1762879991.18992,1.23
1762879991.19612,0.92
1762879991.202492,1.69
1762879991.2087302,1.69
1762879991.2149172,1.36
1762879991.2211268,1.33
1762879991.2275898,1.52
1762879991.2336159,1.44
1762879991.2399921,1.36
1762879991.246091,1.49
1762879991.252439,1.43
1762879991.258625,1.44
1762879991.264816,1.49
1762879991.2711759,1.44
1762879991.2775009,1.52
1762879991.284001,1.49
1762879991.289802,1.46
1762879991.296011,1.55
1762879991.3024588,1.49
1762879991.3086689,1.52
1762879991.314913,1.56
1762879991.321168,1.52
1762879991.327213,1.6
1762879991.333617,1.57
1762879991.3397372,1.55
1762879991.3460429,1.64
1762879991.352247,1.58
1762879991.3584268,1.64
1762879991.3652842,1.71
1762879991.370989,1.63
1762879991.377253,1.73
1762879991.383592,1.74
1762879991.3899221,1.68
1762879991.396018,1.76
1762879991.4023502,1.73
1762879991.408464,1.72
1762879991.4154,1.78
1762879991.421032,1.73
1762879991.427495,1.76
1762879991.433588,1.72
1762879991.43998,1.67
1762879991.4462001,1.68
1762879991.452378,1.56
1762879991.458695,1.53
1762879991.4649441,1.55
1762879991.471179,1.45
1762879991.477491,1.5
1762879991.4836311,1.47
1762879991.489912,1.42
1762879991.496027,1.47
1762879991.5023649,1.41
1762879991.508517,1.46
1762879991.515432,1.5
1762879991.521158,1.4
1762879991.527476,1.47
1762879991.5335512,1.46
1762879991.539885,1.46
1762879991.5461981,1.52
1762879991.560179,1.44
1762879991.560301,1.52
1762879991.5860748,1.57
1762879991.5861928,1.48
1762879991.588167,1.53
1762879991.604156,1.52
1762879991.622399,1.46
1762879991.622474,1.55
1762879991.622527,1.52
1762879991.622585,1.52
1762879991.622644,1.5
1762879991.622729,1.46
1762879991.6271548,1.57
1762879991.6341498,1.53
1762879991.6396558,1.46
1762879991.646073,1.54
1762879991.6521878,1.49
1762879991.6584551,1.52
1762879991.664771,1.56
1762879991.670914,1.45
1762879991.67713,1.52
1762879991.683449,1.53
1762879991.689636,1.49
1762879991.695932,1.55
1762879991.702341,1.47
1762879991.7083352,1.48
1762879991.714761,1.6
1762879991.720957,1.58
1762879991.7270982,1.66
1762879991.733373,1.64
1762879991.739694,1.65
1762879991.747175,1.82
1762879991.752158,1.74
1762879991.75858,1.67
1762879991.7651799,1.73
1762879991.771102,1.64
1762879991.777306,1.56
1762879991.783561,1.51
1762879991.789799,1.44
1762879991.79597,1.49
1762879991.802227,1.44
1762879991.808447,1.44
1762879991.814707,1.48
1762879991.821095,1.45
1762879991.827141,1.51
1762879991.833502,1.46
1762879991.839898,1.42
1762879991.845946,1.53
1762879991.852149,1.48
1762879991.85839,1.47
1762879991.86489,1.52
1762879991.870925,1.49
1762879991.877172,1.56
1762879991.883764,1.52
1762879991.889935,1.44
1762879991.8960268,1.55
1762879991.902192,1.63
1762879991.908389,1.82
1762879991.914753,2.41
1762879991.920904,3.16
1762879991.927474,3.17
1762879991.933722,3.17
1762879991.939643,3.11
1762879991.9459798,1.4
1762879991.9521909,0.86
1762879991.958336,1.68
1762879991.965159,1.78
1762879991.971027,1.35
1762879991.977351,1.41
1762879991.983437,1.52
1762879991.9897192,1.42
1762879991.9958808,1.48
1762879992.002346,1.46
1762879992.008414,1.45
1762879992.014744,1.51
1762879992.021035,1.44
1762879992.027362,1.51
1762879992.033359,1.53
1762879992.0397062,1.47
1762879992.045954,1.55
1762879992.052279,1.5
1762879992.0585039,1.53
1762879992.064708,1.61
1762879992.070984,1.53
1762879992.0775151,1.56
1762879992.083464,1.56
1762879992.0897658,1.57
1762879992.095948,1.67
1762879992.102289,1.6
1762879992.108466,1.6
1762879992.114626,1.7
1762879992.120832,1.65
1762879992.127499,1.68
1762879992.1334379,1.73
1762879992.139789,1.74
1762879992.1459699,1.81
1762879992.152132,1.74
1762879992.158491,1.76
1762879992.164695,1.82
1762879992.170879,1.72
1762879992.177189,1.79
1762879992.183497,1.79
1762879992.189805,1.71
1762879992.1958358,1.74
1762879992.202178,1.65
1762879992.208333,1.63
1762879992.214636,1.62
1762879992.2208169,1.49
1762879992.2271821,1.54
1762879992.233443,1.52
1762879992.2397141,1.41
1762879992.245827,1.48
1762879992.252038,1.48
1762879992.2584152,1.43
1762879992.2648919,1.5
1762879992.270922,1.46
1762879992.2773209,1.49
1762879992.283511,1.5
1762879992.289757,1.44
1762879992.295842,1.52
1762879992.3020532,1.46
1762879992.308476,1.5
1762879992.3147311,1.59
1762879992.321111,1.49
1762879992.327544,1.51
1762879992.333365,1.54
1762879992.3396952,1.49
1762879992.345852,1.55
1762879992.352114,1.51
1762879992.358377,1.49
1762879992.3647108,1.56
1762879992.3710148,1.49
1762879992.37742,1.55
1762879992.3833542,1.54
1762879992.38961,1.47
1762879992.39586,1.55
1762879992.40206,1.51
1762879992.408433,1.49
1762879992.415802,1.57
1762879992.420862,1.48
1762879992.4272451,1.52
1762879992.433374,1.53
1762879992.439589,1.45
1762879992.445911,1.59
1762879992.452055,1.5
1762879992.458347,1.47
1762879992.465014,1.61
1762879992.470848,1.51
1762879992.4770482,1.52
1762879992.483283,1.61
1762879992.4894972,1.61
1762879992.495784,1.65
1762879992.502057,1.64
1762879992.50821,1.77
1762879992.5145228,1.84
1762879992.52076,1.67
1762879992.5270169,1.67
1762879992.533259,1.72
1762879992.539454,1.56
1762879992.545922,1.56
1762879992.5519848,1.5
1762879992.55825,1.45
1762879992.564537,1.49
1762879992.5707679,1.41
1762879992.576907,1.48
1762879992.5832472,1.52
1762879992.589528,1.44
1762879992.595783,1.49
1762879992.6019719,1.46
1762879992.6082292,1.48
1762879992.614513,1.55
1762879992.620702,1.44
1762879992.627264,1.51
1762879992.633194,1.58
1762879992.6396081,1.51
1762879992.645845,1.54
1762879992.652184,1.52
1762879992.6582341,1.54
1762879992.664664,1.74
1762879992.670927,1.92
1762879992.677279,2.7
1762879992.683391,3.16
1762879992.689555,3.17
1762879992.6960452,3.17
1762879992.701938,2.33
1762879992.7083719,0.78
1762879992.714558,1.38
1762879992.72121,1.79
1762879992.727063,1.54
1762879992.73323,1.42
1762879992.739647,1.43
1762879992.745707,1.52
1762879992.752255,1.46
1762879992.758253,1.44
1762879992.764603,1.52
1762879992.770873,1.45
1762879992.777063,1.51
1762879992.78323,1.52
1762879992.78947,1.46
1762879992.795744,1.54
1762879992.801936,1.52
1762879992.808287,1.52
1762879992.815064,1.6
1762879992.820907,1.54
1762879992.827115,1.57
1762879992.83323,1.62
1762879992.839461,1.54
1762879992.8457458,1.62
1762879992.852117,1.64
1762879992.858158,1.61
1762879992.864626,1.66
1762879992.8706949,1.63
1762879992.877078,1.72
1762879992.883372,1.7
1762879992.889488,1.63
1762879992.895736,1.8
1762879992.9021068,1.78
1762879992.908315,1.72
1762879992.9148002,1.81
1762879992.920814,1.73
1762879992.927138,1.74
1762879992.933271,1.8
1762879992.93953,1.75
1762879992.945803,1.81
1762879992.951972,1.74
1762879992.958129,1.66
1762879992.9646919,1.7
1762879992.970695,1.57
1762879992.9769752,1.54
1762879992.994841,1.55
1762879992.995209,1.49
1762879993.000757,1.5
1762879993.016277,1.43
1762879993.025795,1.42
1762879993.052206,1.53
1762879993.0535629,1.44
1762879993.053639,1.44
1762879993.053691,1.52
1762879993.053741,1.45
1762879993.053791,1.49
1762879993.055167,1.47
1762879993.058155,1.46
1762879993.068395,1.57
1762879993.070664,1.48
1762879993.076877,1.49
1762879993.0832,1.56
1762879993.089398,1.48
1762879993.095665,1.55
1762879993.1020212,1.54
1762879993.108124,1.5
1762879993.1144671,1.57
1762879993.1206248,1.49
1762879993.126915,1.52
1762879993.1331358,1.55
1762879993.139379,1.47
1762879993.145646,1.56
1762879993.151944,1.51
1762879993.1580749,1.46
1762879993.164405,1.57
1762879993.1705868,1.48
1762879993.1769412,1.45
1762879993.1830552,1.52
1762879993.189311,1.52
1762879993.1957572,1.54
1762879993.2019231,1.57
1762879993.207998,1.61
1762879993.2144141,1.65
1762879993.2206569,1.61
1762879993.226926,1.74
1762879993.233282,1.81
1762879993.239398,1.68
1762879993.2466471,1.71
1762879993.2517729,1.71
1762879993.258136,1.55
1762879993.264632,1.51
1762879993.270677,1.45
1762879993.276885,1.44
1762879993.283078,1.45
1762879993.2895832,1.38
1762879993.2957702,1.44
1762879993.302007,1.45
1762879993.308321,1.42
1762879993.314502,1.47
1762879993.3206651,1.37
1762879993.326925,1.44
1762879993.333217,1.51
1762879993.339554,1.41
1762879993.345685,1.47
1762879993.351926,1.46
1762879993.358264,1.45
1762879993.364476,1.53
1762879993.370666,1.46
1762879993.376907,1.46
1762879993.383371,1.61
1762879993.389347,1.73
1762879993.3960562,2.32
1762879993.401834,3.16
1762879993.408289,3.17
1762879993.414321,3.17
1762879993.4205408,3.02
1762879993.426922,1.18
1762879993.433046,0.91
1762879993.439397,1.64
1762879993.445947,1.71
1762879993.45206,1.37
1762879993.458091,1.34
1762879993.464426,1.51
1762879993.470565,1.4
1762879993.476886,1.39
1762879993.483128,1.49
1762879993.489323,1.41
1762879993.495788,1.48
1762879993.501929,1.46
1762879993.50821,1.41
1762879993.514406,1.5
1762879993.520691,1.49
1762879993.526826,1.49
1762879993.533092,1.52
1762879993.5393422,1.47
1762879993.545742,1.52
1762879993.5519092,1.54
1762879993.558086,1.5
1762879993.564833,1.59
1762879993.570642,1.57
1762879993.576847,1.57
1762879993.583256,1.61
1762879993.5894961,1.58
1762879993.595663,1.64
1762879993.602124,1.65
1762879993.608361,1.63
1762879993.614452,1.73
1762879993.62065,1.68
1762879993.62704,1.71
1762879993.633086,1.77
1762879993.639372,1.69
1762879993.646108,1.73
1762879993.651902,1.73
1762879993.658274,1.67
1762879993.664671,1.78
1762879993.670763,1.72
1762879993.677032,1.65
1762879993.683106,1.62
1762879993.6892428,1.52
1762879993.6962829,1.57
1762879993.701847,1.52
1762879993.708182,1.45
1762879993.71436,1.51
1762879993.720593,1.43
1762879993.726882,1.41
1762879993.733026,1.45
1762879993.7392771,1.37
1762879993.746718,1.44
1762879993.751872,1.44
1762879993.758064,1.4
1762879993.764842,1.47
1762879993.770543,1.44
1762879993.7768269,1.44
1762879993.782985,1.52
1762879993.789376,1.44
1762879993.796139,1.5
1762879993.8018959,1.5
1762879993.808088,1.43
1762879993.814372,1.52
1762879993.8205981,1.49
1762879993.8267672,1.49
1762879993.833052,1.53
1762879993.839218,1.46
1762879993.8458009,1.51
1762879993.851727,1.5
1762879993.8580139,1.44
1762879993.8642619,1.56
1762879993.8705568,1.53
1762879993.876941,1.48
1762879993.8830469,1.52
1762879993.8892548,1.46
1762879993.89626,1.49
1762879993.901852,1.52
1762879993.908193,1.5
1762879993.9143171,1.6
1762879993.92051,1.58
1762879993.926713,1.58
1762879993.932985,1.68
1762879993.9391701,1.72
1762879993.946788,1.76
1762879993.951947,1.72
1762879993.9581041,1.61
1762879993.9643672,1.74
1762879993.9704928,1.59
1762879993.9767869,1.45
1762879993.983158,1.49
1762879993.989318,1.43
1762879993.9959118,1.44
1762879994.001763,1.42
1762879994.0079181,1.39
1762879994.014219,1.49
1762879994.020517,1.44
1762879994.0266838,1.4
1762879994.0330749,1.47
1762879994.039231,1.41
1762879994.045863,1.44
1762879994.0520709,1.46
1762879994.058105,1.42
1762879994.0642402,1.49
1762879994.070534,1.47
1762879994.076864,1.48
1762879994.083168,1.49
1762879994.0892391,1.43
1762879994.095606,1.52
1762879994.1018748,1.6
1762879994.108023,1.7
1762879994.114503,2.31
1762879994.12053,3.15
1762879994.126699,3.17
1762879994.132915,3.17
1762879994.1393979,3.0
1762879994.145622,1.17
1762879994.151928,0.91
1762879994.1582432,1.66
1762879994.164268,1.71
1762879994.170791,1.39
1762879994.176851,1.38
1762879994.18298,1.51
1762879994.1894011,1.4
1762879994.1955268,1.41
1762879994.2017632,1.46
1762879994.20829,1.44
1762879994.2141929,1.52
1762879994.220575,1.45
1762879994.226795,1.45
1762879994.232992,1.55
1762879994.239399,1.45
1762879994.245537,1.51
1762879994.2516859,1.56
1762879994.257946,1.5
1762879994.26415,1.53
1762879994.2703738,1.52
1762879994.276715,1.58
1762879994.28286,1.64
1762879994.289161,1.53
1762879994.2963798,1.56
1762879994.30178,1.65
1762879994.308,1.63
1762879994.314216,1.68
1762879994.320537,1.64
1762879994.3267,1.64
1762879994.332908,1.77
1762879994.339154,1.69
1762879994.345828,1.74
1762879994.351816,1.78
1762879994.357974,1.7
1762879994.3641899,1.78
1762879994.3705978,1.75
1762879994.3769221,1.71
1762879994.382993,1.79
1762879994.389395,1.72
1762879994.395628,1.7
1762879994.4018502,1.63
1762879994.4078689,1.53
1762879994.4141529,1.6
1762879994.42045,1.56
1762879994.426744,1.48
1762879994.43304,1.53
1762879994.439321,1.42
1762879994.445579,1.43
1762879994.451871,1.49
1762879994.457868,1.45
1762879994.464143,1.5
1762879994.470428,1.46
1762879994.476659,1.45
1762879994.482836,1.51
1762879994.4891331,1.4
1762879994.4954848,1.49
1762879994.50172,1.57
1762879994.5081851,1.45
1762879994.514251,1.52
1762879994.520403,1.49
1762879994.526637,1.5
1762879994.5329,1.58
1762879994.5392,1.48
1762879994.553527,1.53
1762879994.553727,1.58
1762879994.590702,1.48
1762879994.5910568,1.53
1762879994.6167018,1.54
1762879994.6173,1.51
1762879994.617414,1.55
1762879994.617462,1.47
1762879994.617505,1.52
1762879994.617635,1.56
1762879994.6177049,1.46
1762879994.6177611,1.53
1762879994.620362,1.54
1762879994.629445,1.5
1762879994.632784,1.57
1762879994.6391108,1.54
1762879994.645406,1.61
1762879994.6515882,1.65
1762879994.65784,1.58
1762879994.6641438,1.77
1762879994.670337,1.77
1762879994.676834,1.71
1762879994.682732,1.72
1762879994.689058,1.66
1762879994.6954172,1.61
1762879994.70151,1.52
1762879994.707989,1.42
1762879994.714145,1.49
1762879994.720302,1.43
1762879994.726634,1.41
1762879994.732911,1.52
1762879994.739069,1.42
1762879994.745395,1.42
1762879994.7515059,1.48
1762879994.757819,1.41
1762879994.76417,1.46
1762879994.770216,1.44
1762879994.776683,1.44
1762879994.782867,1.54
1762879994.789032,1.43
1762879994.795546,1.46
1762879994.801515,1.55
1762879994.807845,1.46
1762879994.814036,1.51
1762879994.8202329,1.54
1762879994.8265312,1.57
1762879994.832909,1.82
1762879994.838965,2.31
1762879994.845344,3.16
1762879994.8515468,3.17
1762879994.8578198,3.17
1762879994.8639302,3.05
1762879994.870291,1.19
1762879994.876597,0.88
1762879994.8827388,1.76
1762879994.889015,1.65
1762879994.895977,1.37
1762879994.901925,1.46
1762879994.907975,1.46
1762879994.914026,1.48
1762879994.9203908,1.44
1762879994.92661,1.42
1762879994.932807,1.53
1762879994.9391959,1.48
1762879994.945311,1.5
1762879994.951702,1.55
1762879994.957943,1.44
1762879994.964067,1.5
1762879994.9707782,1.54
1762879994.976691,1.51
1762879994.982822,1.59
1762879994.9893491,1.54
1762879994.99532,1.56
1762879995.001601,1.59
1762879995.00803,1.53
1762879995.014158,1.62
1762879995.0203469,1.62
1762879995.026689,1.62
1762879995.032798,1.71
1762879995.039205,1.64
1762879995.04537,1.66
1762879995.051557,1.72
1762879995.057995,1.69
1762879995.064151,1.79
1762879995.070358,1.78
1762879995.076548,1.73
1762879995.082751,1.8
1762879995.0889542,1.74
1762879995.095402,1.78
1762879995.101496,1.79
1762879995.107745,1.7
1762879995.114024,1.79
1762879995.120279,1.73
1762879995.126604,1.62
1762879995.132899,1.66
1762879995.1391082,1.56
1762879995.145486,1.55
1762879995.151519,1.56
1762879995.1579509,1.46
1762879995.163991,1.52
1762879995.170169,1.5
1762879995.1765492,1.48
1762879995.182961,1.54
1762879995.1891332,1.45
1762879995.195242,1.47
1762879995.2016551,1.53
1762879995.208008,1.45
1762879995.21403,1.51
1762879995.2203588,1.52
1762879995.226784,1.48
1762879995.232975,1.56
1762879995.23919,1.52
1762879995.245302,1.52
1762879995.251599,1.56
1762879995.258018,1.53
1762879995.264328,1.57
1762879995.27042,1.54
1762879995.276545,1.52
1762879995.282775,1.6
1762879995.2891672,1.53
1762879995.295269,1.53
1762879995.301435,1.58
1762879995.3078241,1.46
1762879995.314007,1.55
1762879995.3201852,1.59
1762879995.326494,1.52
1762879995.332712,1.55
1762879995.338858,1.5
1762879995.345265,1.55
1762879995.351464,1.67
1762879995.357752,1.61
1762879995.36398,1.63
1762879995.370244,1.67
1762879995.3765628,1.71
1762879995.38276,1.81
1762879995.389003,1.73
1762879995.3952022,1.69
1762879995.4015481,1.73
1762879995.407729,1.52
1762879995.4140038,1.52
1762879995.42017,1.51
1762879995.426644,1.44
1762879995.432611,1.51
1762879995.45343,1.43
1762879995.4779809,1.45
1762879995.4821708,1.49
1762879995.494603,1.43
1762879995.497153,1.49
1762879995.497996,1.47
1762879995.498058,1.42
1762879995.498113,1.52
1762879995.498739,1.46
1762879995.498854,1.48
1762879995.502935,1.51
1762879995.514483,1.42
1762879995.514611,1.55
1762879995.528737,1.55
1762879995.5288708,1.46
1762879995.533325,1.58
1762879995.5389,1.66
1762879995.545378,1.9
1762879995.5515761,2.55
1762879995.5795221,3.16
1762879995.582495,3.17
1762879995.582879,3.17
1762879995.5830588,3.01
1762879995.583276,1.22
1762879995.588911,0.96
1762879995.595148,1.71
1762879995.601556,1.67
1762879995.607841,1.34
1762879995.613995,1.45
1762879995.620194,1.48
1762879995.626403,1.42
1762879995.632787,1.5
1762879995.638894,1.47
1762879995.6451101,1.44
1762879995.651359,1.48
1762879995.6576169,1.42
1762879995.663893,1.53
1762879995.670198,1.54
1762879995.6766531,1.44
1762879995.6825469,1.56
1762879995.688902,1.52
1762879995.695132,1.53
1762879995.701379,1.59
1762879995.707646,1.5
1762879995.713832,1.57
1762879995.720112,1.63
1762879995.726914,1.57
1762879995.7328691,1.66
1762879995.7388759,1.62
1762879995.745572,1.65
1762879995.751341,1.72
1762879995.757653,1.65
1762879995.763801,1.73
1762879995.77015,1.74
1762879995.776444,1.66
1762879995.782654,1.77
1762879995.788933,1.81
1762879995.795635,1.78
1762879995.801326,1.78
1762879995.8076339,1.72
1762879995.813897,1.78
1762879995.820122,1.78
1762879995.8264918,1.68
1762879995.8325708,1.69
1762879995.838872,1.63
1762879995.845097,1.58
1762879995.8513348,1.6
1762879995.8576388,1.49
1762879995.8638022,1.5
1762879995.8702452,1.49
1762879995.8766289,1.39
1762879995.882593,1.46
1762879995.889039,1.45
1762879995.8951738,1.45
1762879995.9013162,1.49
1762879995.9076428,1.41
1762879995.913912,1.45
1762879995.9200919,1.46
1762879995.926322,1.42
1762879995.932551,1.52
1762879995.9388852,1.46
1762879995.945143,1.45
1762879995.951294,1.52
1762879995.957791,1.48
1762879995.963844,1.52
1762879995.970016,1.52
1762879995.9764118,1.47
1762879995.98259,1.54
1762879995.988853,1.53
1762879995.995523,1.5
1762879996.001408,1.54
1762879996.00763,1.46
1762879996.013906,1.52
1762879996.020065,1.56
1762879996.026506,1.48
1762879996.042166,1.52
1762879996.05904,1.5
1762879996.075108,1.51
1762879996.080856,1.56
1762879996.080972,1.56
1762879996.0810518,1.64
1762879996.081132,1.64
1762879996.0812101,1.64
1762879996.083084,1.77
1762879996.090484,1.71
1762879996.09619,1.64
1762879996.101365,1.72
1762879996.107497,1.59
1762879996.113756,1.51
1762879996.120383,1.51
1762879996.126357,1.45
1762879996.132545,1.48
1762879996.138914,1.37
1762879996.1451619,1.38
1762879996.151456,1.5
1762879996.157566,1.38
1762879996.1638489,1.38
1762879996.170047,1.47
1762879996.176358,1.45
1762879996.182492,1.47
1762879996.1887622,1.43
1762879996.195433,1.44
1762879996.2012742,1.52
1762879996.2075,1.41
1762879996.213805,1.48
1762879996.220032,1.53
1762879996.2263029,1.46
1762879996.23249,1.51
1762879996.238838,1.52
1762879996.245013,1.68
1762879996.251221,2.07
1762879996.257552,2.76
1762879996.263802,3.17
1762879996.269944,3.17
1762879996.276395,3.17
1762879996.2824588,2.53
1762879996.288809,0.8
1762879996.29506,1.15
1762879996.301376,1.83
1762879996.3075788,1.51
1762879996.313803,1.3
1762879996.3200388,1.43
1762879996.326541,1.44
1762879996.332435,1.47
1762879996.338646,1.41
1762879996.345001,1.38
1762879996.351264,1.49
1762879996.357603,1.44
1762879996.363725,1.45
1762879996.369941,1.51
1762879996.376301,1.45
1762879996.3824158,1.51
1762879996.3887758,1.48
1762879996.3952682,1.48
1762879996.40129,1.57
1762879996.4076061,1.52
1762879996.413722,1.53
1762879996.419965,1.56
1762879996.426343,1.5
1762879996.43245,1.62
1762879996.4388638,1.62
1762879996.445132,1.6
1762879996.451166,1.7
1762879996.457515,1.61
1762879996.463624,1.65
1762879996.46992,1.74
1762879996.476346,1.7
1762879996.482502,1.79
1762879996.4887328,1.75
1762879996.495133,1.7
1762879996.501203,1.8
1762879996.507503,1.73
1762879996.5137448,1.78
1762879996.519967,1.79
1762879996.5265,1.67
1762879996.532495,1.69
1762879996.539005,1.63
1762879996.545037,1.57
1762879996.551211,1.59
1762879996.557512,1.49
1762879996.5636852,1.49
1762879996.5699232,1.49
1762879996.576226,1.4
1762879996.5825012,1.45
1762879996.588901,1.44
1762879996.595008,1.43
1762879996.601224,1.49
1762879996.607536,1.38
1762879996.61378,1.43
1762879996.620098,1.47
1762879996.626401,1.39
1762879996.632477,1.48
1762879996.638888,1.47
1762879996.644989,1.41
1762879996.651118,1.53
1762879996.657414,1.49
1762879996.6636212,1.49
1762879996.6699,1.51
1762879996.676299,1.43
1762879996.682453,1.52
1762879996.688672,1.51
1762879996.694901,1.45
1762879996.7011788,1.54
1762879996.7074199,1.51
1762879996.7136798,1.52
1762879996.719923,1.53
1762879996.7262778,1.44
1762879996.7324128,1.51
1762879996.738699,1.51
1762879996.744936,1.47
1762879996.751253,1.53
1762879996.757472,1.45
1762879996.763646,1.5
1762879996.76994,1.56
1762879996.776156,1.45
1762879996.782374,1.54
1762879996.788699,1.61
1762879996.794894,1.59
1762879996.8011038,1.6
1762879996.807442,1.6
1762879996.813649,1.75
1762879996.819941,1.78
1762879996.8265831,1.64
1762879996.832403,1.71
1762879996.838897,1.68
1762879996.844918,1.52
1762879996.8511062,1.53
1762879996.8574982,1.44
1762879996.863682,1.44
1762879996.869833,1.41
1762879996.876288,1.38
1762879996.882431,1.52
1762879996.8886578,1.46
1762879996.8948638,1.35
1762879996.9011059,1.5
1762879996.907457,1.46
1762879996.9137,1.42
1762879996.9198232,1.45
1762879996.926226,1.41
1762879996.932456,1.52
1762879996.938633,1.5
1762879996.944949,1.44
1762879996.9511192,1.52
1762879996.957409,1.46
1762879996.96364,1.49
1762879996.9700239,1.55
1762879996.976126,1.61
1762879996.9823208,1.96
1762879996.988535,2.59
1762879996.994853,3.16
1762879997.0010738,3.17
1762879997.007668,3.17
1762879997.013592,2.94
1762879997.019833,1.07
1762879997.02612,0.9
1762879997.032367,1.78
1762879997.038603,1.7
1762879997.044804,1.29
1762879997.051032,1.39
1762879997.057936,1.47
1762879997.063638,1.47
1762879997.069833,1.47
1762879997.076343,1.38
1762879997.082391,1.48
1762879997.0887082,1.5
1762879997.09484,1.43
1762879997.101077,1.51
1762879997.107507,1.47
1762879997.113653,1.51
1762879997.11995,1.55
1762879997.126262,1.48
1762879997.132292,1.54
1762879997.1385942,1.55
1762879997.1448781,1.52
1762879997.151066,1.6
1762879997.157364,1.56
1762879997.163638,1.6
1762879997.169864,1.67
1762879997.176474,1.56
1762879997.1824121,1.62
1762879997.188828,1.7
1762879997.194966,1.69
1762879997.2011578,1.75
1762879997.207448,1.7
1762879997.213566,1.74
1762879997.219777,1.78
1762879997.226204,1.73
1762879997.2323022,1.82
1762879997.2385879,1.83
1762879997.24485,1.75
1762879997.2510452,1.82
1762879997.2573,1.75
1762879997.2636569,1.72
1762879997.2697809,1.74
1762879997.2760909,1.59
1762879997.282376,1.59
1762879997.2886558,1.55
1762879997.2947872,1.45
1762879997.3010051,1.53
1762879997.307691,1.46
1762879997.313581,1.42
1762879997.319734,1.44
1762879997.326137,1.41
1762879997.3322592,1.49
1762879997.338478,1.45
1762879997.344782,1.39
1762879997.351072,1.52
1762879997.357335,1.44
1762879997.363571,1.43
1762879997.3699079,1.52
1762879997.376128,1.44
1762879997.382272,1.48
1762879997.388532,1.49
1762879997.3948312,1.46
1762879997.401,1.53
1762879997.4076211,1.48
1762879997.413614,1.49
1762879997.419753,1.54
1762879997.42605,1.47
1762879997.43227,1.55
1762879997.438507,1.51
1762879997.464724,1.44
1762879997.4649558,1.56
1762879997.4806771,1.51
1762879997.480851,1.49
1762879997.480992,1.53
1762879997.481133,1.47
1762879997.502191,1.53
1762879997.5023801,1.52
1762879997.509803,1.45
1762879997.5103538,1.53
1762879997.5105128,1.51
1762879997.51354,1.5
1762879997.52196,1.54
1762879997.525957,1.45
1762879997.532514,1.51
1762879997.538487,1.52
1762879997.54477,1.45
1762879997.550987,1.51
1762879997.5572832,1.51
1762879997.563571,1.52
1762879997.569779,1.56
1762879997.576141,1.48
1762879997.582239,1.55
1762879997.5885792,1.64
1762879997.594757,1.58
1762879997.601013,1.62
1762879997.607532,1.69
1762879997.6134982,1.77
1762879997.619775,1.78
1762879997.626013,1.62
1762879997.6321568,1.7
1762879997.638439,1.71
1762879997.644759,1.5
1762879997.6510231,1.54
1762879997.657227,1.47
1762879997.663585,1.45
1762879997.669686,1.52
1762879997.675924,1.43
1762879997.682178,1.47
1762879997.688467,1.47
1762879997.6947122,1.42
1762879997.700922,1.51
1762879997.707377,1.48
1762879997.713433,1.47
1762879997.719819,1.52
1762879997.726002,1.46
1762879997.732269,1.48
1762879997.7384992,1.53
1762879997.744815,1.52
1762879997.751057,1.58
1762879997.7572422,1.51
1762879997.763608,1.52
1762879997.7698472,1.66
1762879997.7760682,1.74
1762879997.782308,2.21
1762879997.7886841,3.11
1762879997.794826,3.17
1762879997.800972,3.17
1762879997.807255,3.16
1762879997.8134022,1.78
1762879997.819672,0.78
1762879997.826035,1.52
1762879997.832274,1.83
1762879997.838791,1.47
1762879997.844804,1.33
1762879997.8509371,1.54
1762879997.857286,1.49
1762879997.8636339,1.41
1762879997.869816,1.5
1762879997.8761358,1.41
1762879997.882217,1.47
1762879997.8885021,1.52
1762879997.894699,1.46
1762879997.900961,1.52
1762879997.907209,1.5
1762879997.913422,1.5
1762879997.9196951,1.58
1762879997.926325,1.49
1762879997.932288,1.53
1762879997.938459,1.57
1762879997.9447281,1.55
1762879997.951078,1.64
1762879997.957238,1.61
1762879997.9633899,1.57
1762879997.969687,1.64
1762879997.9759161,1.61
1762879997.982205,1.7
1762879997.98846,1.74
1762879997.994623,1.66
1762879998.000957,1.76
1762879998.007217,1.78
1762879998.0134661,1.77
1762879998.0196989,1.84
1762879998.026388,1.76
1762879998.032284,1.81
1762879998.0387251,1.87
1762879998.044689,1.79
1762879998.051162,1.83
1762879998.05723,1.78
1762879998.063642,1.71
1762879998.069837,1.69
1762879998.075976,1.57
1762879998.0822341,1.57
1762879998.0885289,1.55
1762879998.094683,1.49
1762879998.100846,1.52
1762879998.107169,1.46
1762879998.113445,1.41
1762879998.119709,1.48
1762879998.12626,1.42
1762879998.1321862,1.47
1762879998.138371,1.49
1762879998.144696,1.41
1762879998.150956,1.5
1762879998.1571898,1.47
1762879998.1634429,1.42
1762879998.16962,1.5
1762879998.1759,1.45
1762879998.1821692,1.47
1762879998.188411,1.51
1762879998.1945899,1.46
1762879998.2008262,1.52
1762879998.2071512,1.49
1762879998.21356,1.5
1762879998.219627,1.56
1762879998.225878,1.48
1762879998.2320871,1.53
1762879998.238564,1.54
1762879998.244629,1.45
1762879998.2508018,1.56
1762879998.257157,1.53
1762879998.2634292,1.48
1762879998.269654,1.57
1762879998.275925,1.51
1762879998.282052,1.5
1762879998.288453,1.51
1762879998.2946272,1.47
1762879998.300884,1.56
1762879998.3072672,1.51
1762879998.313486,1.48
1762879998.3197188,1.55
1762879998.3257868,1.45
1762879998.332076,1.5
1762879998.3383129,1.58
1762879998.34461,1.47
1762879998.35083,1.49
1762879998.357059,1.5
1762879998.36337,1.5
1762879998.3695202,1.56
1762879998.37596,1.5
1762879998.382213,1.52
1762879998.3883562,1.54
1762879998.39458,1.47
1762879998.400905,1.54
1762879998.407407,1.53
1762879998.413431,1.49
1762879998.419826,1.55
1762879998.4258611,1.49
1762879998.4324229,1.55
1762879998.4384158,1.62
1762879998.444672,1.57
1762879998.450832,1.64
1762879998.45741,1.65
1762879998.46331,1.69
1762879998.469549,1.82
1762879998.4758558,1.71
1762879998.482069,1.63
1762879998.4883788,1.7
1762879998.4945998,1.64
1762879998.501056,1.56
1762879998.507286,1.52
1762879998.5132742,1.5
1762879998.519511,1.53
1762879998.525831,1.42
1762879998.532187,1.45
1762879998.538508,1.55
1762879998.5445309,1.49
1762879998.550783,1.51
1762879998.557059,1.5
1762879998.563401,1.46
1762879998.5697012,1.52
1762879998.5759969,1.46
1762879998.582058,1.52
1762879998.588473,1.55
1762879998.5947049,1.47
1762879998.600896,1.56
1762879998.607219,1.54
1762879998.613379,1.5
1762879998.6196978,1.57
1762879998.625824,1.64
1762879998.63203,1.87
1762879998.638282,2.43
1762879998.6444979,3.16
1762879998.650742,3.17
1762879998.657216,3.17
1762879998.6632478,3.13
1762879998.669576,1.43
1762879998.675817,0.8
1762879998.681939,1.68
1762879998.688232,1.85
1762879998.69447,1.36
1762879998.70082,1.43
1762879998.707057,1.53
1762879998.713593,1.45
1762879998.719549,1.5
1762879998.725751,1.43
1762879998.732037,1.47
1762879998.738268,1.53
1762879998.744558,1.44
1762879998.750724,1.52
1762879998.7569861,1.52
1762879998.763262,1.47
1762879998.769521,1.54
1762879998.7759738,1.52
1762879998.7819781,1.57
1762879998.788246,1.62
1762879998.7944782,1.54
1762879998.800788,1.6
1762879998.807085,1.6
1762879998.813279,1.59
1762879998.819681,1.68
1762879998.8257,1.61
1762879998.831908,1.69
1762879998.8382661,1.74
1762879998.856396,1.67
1762879998.877892,1.76
1762879998.8780081,1.78
1762879998.878089,1.75
1762879998.878168,1.82
1762879998.880992,1.79
1762879998.892447,1.83
1762879998.892585,1.85
1762879998.91439,1.78
1762879998.914764,1.89
1762879998.914859,1.86
1762879998.9149382,1.75
1762879998.919522,1.77
1762879998.928372,1.66
1762879998.931983,1.64
1762879998.938655,1.64
1762879998.944522,1.5
1762879998.9509609,1.54
1762879998.95728,1.51
1762879998.963226,1.43
1762879998.969429,1.48
1762879998.9757109,1.43
1762879998.98194,1.49
1762879998.9882271,1.51
1762879998.994459,1.38
1762879999.000664,1.48
1762879999.007016,1.52
1762879999.0132658,1.44
1762879999.019425,1.49
1762879999.0256472,1.45
1762879999.031895,1.46
1762879999.038185,1.52
1762879999.044464,1.46
1762879999.0506449,1.53
1762879999.05697,1.52
1762879999.06337,1.48
1762879999.069536,1.56
1762879999.0758379,1.52
1762879999.081907,1.51
1762879999.088385,1.54
1762879999.094433,1.5
1762879999.1007202,1.57
1762879999.106982,1.53
1762879999.1134279,1.5
1762879999.119467,1.6
1762879999.125663,1.5
1762879999.1318789,1.5
1762879999.138274,1.53
1762879999.1444511,1.51
1762879999.150694,1.6
1762879999.156929,1.55
1762879999.163318,1.47
1762879999.1694632,1.56
1762879999.175628,1.51
1762879999.181879,1.51
1762879999.1882172,1.55
1762879999.1945229,1.49
1762879999.2007182,1.56
1762879999.206965,1.53
1762879999.2132359,1.46
1762879999.2195148,1.56
1762879999.225706,1.52
1762879999.231858,1.53
1762879999.2381709,1.59
1762879999.244527,1.51
1762879999.250717,1.57
1762879999.257031,1.63
1762879999.263215,1.59
1762879999.269456,1.68
1762879999.2756171,1.73
1762879999.281933,1.77
1762879999.288173,1.74
1762879999.294443,1.56
1762879999.3006022,1.71
1762879999.307036,1.67
1762879999.313205,1.49
1762879999.319346,1.53
1762879999.325637,1.51
1762879999.331858,1.47
1762879999.3382359,1.5
1762879999.344519,1.45
1762879999.350816,1.5
1762879999.357308,1.5
1762879999.363122,1.47
1762879999.369726,1.56
1762879999.3756921,1.48
1762879999.381858,1.48
1762879999.388149,1.56
1762879999.394468,1.47
1762879999.400554,1.53
1762879999.40698,1.55
1762879999.413284,1.47
1762879999.4194481,1.61
1762879999.425716,1.55
1762879999.431935,1.56
1762879999.438174,1.76
1762879999.444421,2.01
1762879999.450614,2.82
1762879999.458336,3.17
1762879999.463188,3.17
1762879999.4693592,3.17
1762879999.475604,2.78
1762879999.481987,1.0
1762879999.4892008,1.16
1762879999.494385,1.76
1762879999.500813,1.63
1762879999.506956,1.35
1762879999.5132768,1.39
1762879999.519454,1.61
1762879999.5256069,1.5
1762879999.53184,1.41
1762879999.53812,1.5
1762879999.5443358,1.46
1762879999.55055,1.5
1762879999.556824,1.49
1762879999.56319,1.49
1762879999.5692859,1.58
1762879999.575555,1.5
1762879999.581892,1.48
1762879999.588161,1.59
1762879999.5943491,1.53
1762879999.600567,1.58
1762879999.606984,1.65
1762879999.6133592,1.55
1762879999.6195,1.59
1762879999.62575,1.59
1762879999.631833,1.63
1762879999.638207,1.69
1762879999.644369,1.61
1762879999.650632,1.69
1762879999.657226,1.75
1762879999.663169,1.73
1762879999.669446,1.79
1762879999.6756768,1.74
1762879999.6817942,1.76
1762879999.6882198,1.83
1762879999.694518,1.81
1762879999.7006521,1.83
1762879999.706933,1.8
1762879999.713133,1.75
1762879999.719282,1.85
1762879999.725537,1.74
1762879999.7318609,1.67
1762879999.73857,1.69
1762879999.744323,1.56
1762879999.7507992,1.55
1762879999.7568169,1.55
1762879999.763105,1.43
1762879999.769751,1.48
1762879999.775527,1.45
1762879999.781875,1.43
1762879999.788534,1.48
1762879999.794328,1.4
1762879999.8007302,1.47
1762879999.806835,1.48
1762879999.813031,1.34
1762879999.819558,1.46
1762879999.825676,1.45
1762879999.831764,1.43
1762879999.838604,1.52
1762879999.844316,1.46
1762879999.850806,1.52
1762879999.856857,1.46
1762879999.863038,1.43
1762879999.869558,1.54
1762879999.875577,1.45
1762879999.881833,1.43
1762879999.8881888,1.55
1762879999.894279,1.51
1762879999.90055,1.53
1762879999.90676,1.51
1762879999.9132679,1.46
1762879999.919425,1.56
1762879999.9255612,1.52
1762879999.9317791,1.5
1762879999.9384708,1.53
1762879999.944329,1.43
1762879999.950801,1.54
1762879999.956892,1.57
1762879999.9630551,1.45
1762879999.969268,1.51
1762879999.975539,1.52
1762879999.98177,1.48
1762879999.988215,1.56
1762879999.9943218,1.48
1762880000.000712,1.48
1762880000.006871,1.54
1762880000.013089,1.47
1762880000.019265,1.54
1762880000.025544,1.52
1762880000.031787,1.52
1762880000.0380921,1.64
1762880000.0442429,1.56
1762880000.050569,1.6
1762880000.056725,1.7
1762880000.063118,1.69
1762880000.0692632,1.73
1762880000.0754828,1.65
1762880000.081721,1.65
1762880000.088081,1.68
1762880000.094243,1.52
1762880000.100443,1.52
1762880000.1067798,1.51
1762880000.113024,1.41
1762880000.119191,1.51
1762880000.12543,1.46
1762880000.131781,1.4
1762880000.138558,1.54
1762880000.144233,1.45
1762880000.1506891,1.44
1762880000.1567318,1.49
1762880000.163093,1.48
1762880000.16926,1.52
1762880000.17551,1.47
1762880000.1816719,1.45
1762880000.188066,1.54
1762880000.194232,1.51
1762880000.2005,1.52
1762880000.206722,1.53
1762880000.213025,1.49
1762880000.21922,1.66
1762880000.254696,1.85
1762880000.2548969,2.38
1762880000.2550762,3.16
1762880000.255231,3.17
1762880000.258674,3.17
1762880000.2763798,3.15
1762880000.276514,1.51
1762880000.276618,0.87
1762880000.276723,1.55
1762880000.290572,1.69
1762880000.2912152,1.47
1762880000.294185,1.34
1762880000.3017118,1.47
1762880000.3067431,1.5
1762880000.3134,1.37
1762880000.319286,1.46
1762880000.325495,1.49
1762880000.331784,1.43
1762880000.338758,1.51
1762880000.344175,1.45
1762880000.3503628,1.45
1762880000.3566878,1.51
1762880000.36291,1.5
1762880000.3691509,1.55
1762880000.375377,1.49
1762880000.381689,1.49
1762880000.3879879,1.6
1762880000.394204,1.51
1762880000.4005508,1.6
1762880000.406664,1.64
1762880000.412979,1.56
1762880000.419116,1.64
1762880000.4254248,1.64
1762880000.4317179,1.63
1762880000.438066,1.72
1762880000.4441888,1.71
1762880000.450521,1.76
1762880000.474474,1.77
1762880000.474599,1.73
1762880000.474682,1.81
1762880000.475519,1.8
1762880000.521132,1.75
1762880000.534668,1.85
1762880000.546688,1.78
1762880000.552264,1.78
1762880000.560334,1.76
1762880000.5604548,1.66
1762880000.560561,1.66
1762880000.560957,1.59
1762880000.561153,1.55
1762880000.5614772,1.57
1762880000.5621288,1.42
1762880000.562272,1.43
1762880000.56238,1.49
1762880000.562958,1.4
1762880000.569267,1.42
1762880000.575503,1.43
1762880000.5928771,1.41
1762880000.593535,1.47
1762880000.594177,1.39
1762880000.600381,1.42
1762880000.606694,1.48
1762880000.6129699,1.42
1762880000.619183,1.46
1762880000.625536,1.42
1762880000.631652,1.45
1762880000.637941,1.54
1762880000.644581,1.44
1762880000.6506639,1.45
1762880000.656718,1.52
1762880000.662879,1.45
1762880000.669194,1.52
1762880000.6753511,1.52
1762880000.681601,1.47
1762880000.688517,1.52
1762880000.694124,1.47
1762880000.7004218,1.53
1762880000.706783,1.56
1762880000.7128682,1.43
1762880000.719108,1.52
1762880000.725249,1.52
1762880000.7316532,1.48
1762880000.738165,1.55
1762880000.7440798,1.49
1762880000.750401,1.49
1762880000.756611,1.53
1762880000.7628329,1.48
1762880000.769078,1.52
1762880000.77534,1.47
1762880000.7815502,1.47
1762880000.787949,1.58
1762880000.7941089,1.48
1762880000.8003001,1.48
1762880000.80671,1.53
1762880000.8127968,1.47
1762880000.819175,1.52
1762880000.8253062,1.53
1762880000.831625,1.49
1762880000.837831,1.58
1762880000.8440058,1.56
1762880000.850294,1.6
1762880000.856585,1.63
1762880000.862806,1.6
1762880000.869087,1.78
1762880000.875217,1.78
1762880000.8815858,1.64
1762880000.887965,1.67
1762880000.8941922,1.64
1762880000.9002938,1.63
1762880000.906701,1.55
1762880000.91285,1.44
1762880000.919154,1.51
1762880000.925237,1.51
1762880000.931612,1.41
1762880000.937854,1.5
1762880000.944021,1.48
1762880000.950447,1.48
1762880000.95656,1.49
1762880000.962764,1.42
1762880000.969116,1.52
1762880000.9752572,1.5
1762880000.9814668,1.43
1762880000.9879339,1.55
1762880000.9943411,1.52
1762880001.000372,1.49
1762880001.0065322,1.53
1762880001.012877,1.51
1762880001.0191019,1.56
1762880001.0252411,1.58
1762880001.031536,1.73
1762880001.038004,2.21
1762880001.0440772,2.94
1762880001.050278,3.17
1762880001.0566,3.17
1762880001.06278,3.17
1762880001.069012,2.46
1762880001.075254,0.77
1762880001.081494,1.21
1762880001.087755,1.93
1762880001.094006,1.52
1762880001.1002638,1.3
1762880001.106594,1.5
1762880001.112816,1.45
1762880001.119178,1.44
1762880001.125225,1.46
1762880001.131522,1.45
1762880001.137905,1.52
1762880001.144137,1.46
1762880001.1502368,1.47
1762880001.156584,1.53
1762880001.1628,1.46
1762880001.169183,1.52
1762880001.175243,1.52
1762880001.181522,1.51
1762880001.187886,1.59
1762880001.1939971,1.5
1762880001.200234,1.54
1762880001.2065432,1.66
1762880001.2127721,1.56
1762880001.219059,1.61
1762880001.225256,1.63
1762880001.23153,1.62
1762880001.237851,1.73
1762880001.244147,1.67
1762880001.250228,1.7
1762880001.256568,1.81
1762880001.2627761,1.73
1762880001.268995,1.78
1762880001.275201,1.81
1762880001.281559,1.81
1762880001.287856,1.91
1762880001.294066,1.81
1762880001.300283,1.81
1762880001.3065212,1.88
1762880001.312804,1.77
1762880001.318976,1.76
1762880001.325204,1.7
1762880001.3315158,1.62
1762880001.337711,1.63
1762880001.3440042,1.52
1762880001.350139,1.48
1762880001.356429,1.52
1762880001.362874,1.4
1762880001.3690119,1.44
1762880001.3751822,1.44
1762880001.3815098,1.39
1762880001.387787,1.46
1762880001.3941262,1.41
1762880001.4002051,1.43
1762880001.4064791,1.48
1762880001.412732,1.41
1762880001.419055,1.44
1762880001.425245,1.45
1762880001.4314492,1.44
1762880001.4378922,1.52
1762880001.443997,1.45
1762880001.4502761,1.45
1762880001.45751,1.52
1762880001.462852,1.44
1762880001.46908,1.48
1762880001.475181,1.51
1762880001.481437,1.46
1762880001.487762,1.52
1762880001.4939919,1.49
1762880001.5002859,1.5
1762880001.5066,1.56
1762880001.512762,1.46
1762880001.519076,1.51
1762880001.525194,1.54
1762880001.531431,1.48
1762880001.53777,1.52
1762880001.544209,1.48
1762880001.550206,1.49
1762880001.556443,1.55
1762880001.562709,1.49
1762880001.5689101,1.52
1762880001.575125,1.52
1762880001.58146,1.44
1762880001.587735,1.53
1762880001.593899,1.51
1762880001.600231,1.49
1762880001.606434,1.53
1762880001.6126132,1.43
1762880001.618957,1.52
1762880001.6250901,1.53
1762880001.631399,1.47
1762880001.6381161,1.53
1762880001.6439512,1.46
1762880001.650337,1.49
1762880001.656428,1.59
1762880001.66277,1.49
1762880001.6689548,1.51
1762880001.675217,1.54
1762880001.681497,1.49
1762880001.688022,1.54
1762880001.704608,1.49
1762880001.705042,1.51
1762880001.7087328,1.58
1762880001.725921,1.49
1762880001.726089,1.53
1762880001.726223,1.56
1762880001.742647,1.49
1762880001.750606,1.53
1762880001.7631948,1.52
1762880001.7635462,1.54
1762880001.7640278,1.59
1762880001.764131,1.52
1762880001.7689779,1.61
1762880001.77731,1.67
1762880001.781409,1.62
1762880001.788003,1.72
1762880001.794303,1.74
1762880001.8002691,1.73
1762880001.8064299,1.75
1762880001.812811,1.63
1762880001.819007,1.68
1762880001.825102,1.69
1762880001.83153,1.56
1762880001.8379369,1.56
1762880001.843877,1.47
1762880001.850206,1.49
1762880001.856398,1.55
1762880001.8625548,1.44
1762880001.868833,1.51
1762880001.875147,1.56
1762880001.8813949,1.48
1762880001.887649,1.52
1762880001.893875,1.45
1762880001.900207,1.49
1762880001.906452,1.6
1762880001.912609,1.48
1762880001.918872,1.54
1762880001.925175,1.58
1762880001.93133,1.48
1762880001.937792,1.57
1762880001.94382,1.6
1762880001.950117,1.68
1762880001.95634,1.92
1762880001.962566,2.39
1762880001.968857,3.16
1762880001.975213,3.17
1762880001.98149,3.17
1762880001.9875772,3.14
1762880001.993812,1.41
1762880002.000126,0.8
1762880002.0063412,1.75
1762880002.012706,1.76
1762880002.018867,1.42
1762880002.025014,1.43
1762880002.031329,1.48
1762880002.037663,1.55
1762880002.0438669,1.47
1762880002.050024,1.46
1762880002.056344,1.53
1762880002.0625842,1.45
1762880002.068798,1.5
1762880002.075052,1.53
1762880002.081365,1.49
1762880002.08795,1.54
1762880002.093782,1.5
1762880002.100081,1.53
1762880002.10631,1.59
1762880002.11257,1.52
1762880002.1188538,1.59
1762880002.125026,1.61
1762880002.1314402,1.54
1762880002.1376388,1.62
1762880002.143797,1.62
1762880002.150052,1.63
1762880002.1564171,1.73
1762880002.162554,1.66
1762880002.168826,1.72
1762880002.174986,1.77
1762880002.181309,1.72
1762880002.187615,1.81
1762880002.193922,1.85
1762880002.200162,1.85
1762880002.206333,1.9
1762880002.212522,1.83
1762880002.219039,1.89
1762880002.22501,1.93
1762880002.231265,1.81
1762880002.2375329,1.82
1762880002.2438312,1.79
1762880002.250134,1.74
1762880002.256293,1.72
1762880002.262553,1.55
1762880002.2695649,1.52
1762880002.2750149,1.54
1762880002.281329,1.48
1762880002.287673,1.49
1762880002.293869,1.42
1762880002.300208,1.43
1762880002.3063521,1.52
1762880002.31248,1.4
1762880002.318877,1.45
1762880002.32505,1.49
1762880002.3313558,1.4
1762880002.3376799,1.49
1762880002.343797,1.47
1762880002.3499498,1.43
1762880002.356292,1.48
1762880002.362484,1.45
1762880002.368984,1.49
1762880002.37505,1.51
1762880002.381352,1.44
1762880002.3875232,1.52
1762880002.39375,1.51
1762880002.400061,1.49
1762880002.406251,1.58
1762880002.4125152,1.5
1762880002.4193568,1.52
1762880002.424941,1.57
1762880002.431305,1.52
1762880002.4374862,1.58
1762880002.443764,1.55
1762880002.4501529,1.51
1762880002.456288,1.59
1762880002.462496,1.51
1762880002.468864,1.56
1762880002.474924,1.6
1762880002.481277,1.51
1762880002.487551,1.57
1762880002.493858,1.53
1762880002.500003,1.52
1762880002.5063,1.61
1762880002.512511,1.57
1762880002.519568,1.59
1762880002.525028,1.6
1762880002.531241,1.52
1762880002.537475,1.58
1762880002.543794,1.59
1762880002.549963,1.56
1762880002.556243,1.65
1762880002.56253,1.57
1762880002.5687628,1.58
1762880002.574985,1.62
1762880002.5811572,1.56
1762880002.5874822,1.63
1762880002.593646,1.61
1762880002.599969,1.59
1762880002.606226,1.66
1762880002.612417,1.6
1762880002.6192698,1.64
1762880002.624931,1.69
1762880002.631167,1.59
1762880002.637481,1.66
1762880002.643741,1.67
1762880002.650228,1.64
1762880002.656575,1.72
1762880002.662507,1.64
1762880002.669578,1.64
1762880002.6749172,1.73
1762880002.6812649,1.64
1762880002.6875021,1.71
1762880002.69379,1.7
1762880002.700066,1.64
1762880002.706244,1.75
1762880002.712391,1.7
1762880002.718815,1.73
1762880002.725002,1.76
1762880002.731253,1.66
1762880002.737621,1.7
1762880002.7437031,1.69
1762880002.749913,1.69
1762880002.756258,1.78
1762880002.7624278,1.69
1762880002.7688022,1.72
1762880002.774942,1.84
1762880002.781234,1.77
1762880002.7874298,1.8
1762880002.7936609,1.83
1762880002.800016,1.75
1762880002.806268,1.75
1762880002.812459,1.71
1762880002.819396,1.8
1762880002.824905,1.84
1762880002.831155,1.7
1762880002.8374112,1.8
1762880002.843619,1.83
1762880002.849953,1.75
1762880002.856141,1.86
1762880002.86242,1.81
1762880002.869036,1.83
1762880002.875013,1.88
1762880002.8811572,1.8
1762880002.8875678,1.9
1762880002.893711,1.9
1762880002.900224,1.83
1762880002.9062212,2.02
1762880002.9124322,2.16
1762880002.918807,2.65
1762880002.924958,3.17
1762880002.931176,3.17
1762880002.93757,3.18
1762880002.9437492,3.17
1762880002.950262,2.66
1762880002.95621,1.35
1762880002.962455,1.6
1762880002.968701,2.16
1762880002.974985,1.97
1762880002.981236,1.7
1762880002.9875689,1.94
1762880002.993857,1.93
1762880003.0,1.8
1762880003.006156,1.91
1762880003.012366,1.88
1762880003.018633,1.88
1762880003.0249789,1.93
1762880003.0311549,1.85
1762880003.03744,1.93
1762880003.0436292,1.91
1762880003.049987,1.85
1762880003.056268,1.98
1762880003.062458,1.88
1762880003.0687108,1.87
1762880003.074888,1.94
1762880003.081366,1.84
1762880003.087801,1.94
1762880003.0936441,1.94
1762880003.100069,1.87
1762880003.106123,2.0
1762880003.112415,1.95
1762880003.1186938,1.93
1762880003.135461,2.0
1762880003.151565,1.96
1762880003.1516879,2.08
1762880003.152075,2.07
1762880003.152241,1.99
1762880003.173524,2.09
1762880003.173661,2.05
1762880003.179275,2.07
1762880003.1793652,2.12
1762880003.186798,2.0
1762880003.188749,2.06
1762880003.19451,2.05
1762880003.199882,1.93
1762880003.208858,1.97
1762880003.212424,1.84
1762880003.2202811,1.78
1762880003.2248588,1.78
1762880003.231253,1.63
1762880003.237391,1.7
1762880003.243603,1.65
1762880003.249964,1.56
1762880003.256298,1.65
1762880003.2626188,1.58
1762880003.269321,1.57
1762880003.2749188,1.65
1762880003.281249,1.54
1762880003.287331,1.63
1762880003.293581,1.62
1762880003.299814,1.53
1762880003.306067,1.63
1762880003.312305,1.58
1762880003.318948,1.62
1762880003.324793,1.68
1762880003.3310962,1.57
1762880003.337385,1.65
1762880003.343599,1.62
1762880003.3500621,1.58
1762880003.35616,1.71
1762880003.3622808,1.63
1762880003.369,1.65
1762880003.374829,1.72
1762880003.381359,1.62
1762880003.3874261,1.69
1762880003.393565,1.67
1762880003.399947,1.61
1762880003.4061341,1.74
1762880003.412577,1.65
1762880003.419189,1.65
1762880003.424914,1.75
1762880003.43132,1.63
1762880003.4373078,1.69
1762880003.443535,1.69
1762880003.449912,1.62
1762880003.4560719,1.71
1762880003.462327,1.65
1762880003.468605,1.65
1762880003.474779,1.73
1762880003.481076,1.62
1762880003.4873211,1.69
1762880003.493524,1.68
1762880003.499823,1.59
1762880003.506052,1.71
1762880003.512272,1.64
1762880003.5185542,1.61
1762880003.524802,1.66
1762880003.5310981,1.55
1762880003.5374022,1.68
1762880003.543545,1.67
1762880003.549809,1.56
1762880003.5561202,1.71
1762880003.562222,1.61
1762880003.568578,1.56
1762880003.574917,1.62
1762880003.581144,1.52
1762880003.587258,1.6
1762880003.5935092,1.61
1762880003.599774,1.55
1762880003.6060212,1.66
1762880003.612215,1.61
1762880003.618798,1.61
1762880003.624754,1.64
1762880003.6311018,1.54
1762880003.637324,1.57
1762880003.643563,1.55
1762880003.6497731,1.49
1762880003.65614,1.61
1762880003.662345,1.53
1762880003.668732,1.54
1762880003.674769,1.6
1762880003.680991,1.47
1762880003.6872818,1.56
1762880003.6935182,1.56
1762880003.699836,1.48
1762880003.706105,1.58
1762880003.71223,1.5
1762880003.718833,1.52
1762880003.724897,1.61
1762880003.731099,1.49
1762880003.737202,1.55
1762880003.743521,1.65
1762880003.749841,1.76
1762880003.755998,2.37
1762880003.762175,3.15
1762880003.7685812,3.17
1762880003.774781,3.17
1762880003.781019,3.15
1762880003.787286,1.65
1762880003.7934878,0.77
1762880003.799765,1.46
1762880003.806033,1.73
1762880003.8121998,1.3
1762880003.818678,1.26
1762880003.824715,1.46
1762880003.83105,1.3
1762880003.8372722,1.31
1762880003.843491,1.37
1762880003.849787,1.3
1762880003.8559601,1.38
1762880003.862255,1.3
1762880003.868607,1.32
1762880003.8747652,1.38
1762880003.881011,1.25
1762880003.887254,1.36
1762880003.8934689,1.41
1762880003.8996658,1.29
1762880003.9059489,1.4
1762880003.912221,1.37
1762880003.918647,1.34
1762880003.924751,1.44
1762880003.93093,1.35
1762880003.937288,1.4
1762880003.943465,1.38
1762880003.949705,1.4
1762880003.956039,1.56
1762880003.962204,1.47
1762880003.96854,1.43
1762880003.974828,1.62
1762880003.980942,1.5
1762880003.9871628,1.55
1762880003.993404,1.63
1762880003.9996989,1.55
1762880004.005903,1.62
1762880004.012335,1.56
1762880004.018552,1.57
1762880004.024687,1.66
1762880004.030949,1.49
1762880004.037245,1.52
1762880004.043521,1.48
1762880004.0497248,1.3
1762880004.056101,1.34
1762880004.062478,1.28
1762880004.068877,1.23
1762880004.07477,1.27
1762880004.0810702,1.14
1762880004.087202,1.19
1762880004.0935109,1.2
1762880004.099744,1.09
1762880004.1059709,1.24
1762880004.112213,1.18
1762880004.118479,1.12
1762880004.124716,1.24
1762880004.131001,1.15
1762880004.137383,1.16
1762880004.143702,1.2
1762880004.1496692,1.13
1762880004.155843,1.21
1762880004.162194,1.19
1762880004.1684859,1.2
1762880004.174861,1.28
1762880004.180935,1.13
1762880004.187198,1.18
1762880004.193465,1.27
1762880004.199904,1.16
1762880004.205909,1.3
1762880004.2123609,1.23
1762880004.218393,1.18
1762880004.22473,1.28
1762880004.2309482,1.17
1762880004.237199,1.27
1762880004.243478,1.3
1762880004.249629,1.13
1762880004.2558799,1.28
1762880004.262197,1.27
1762880004.268524,1.19
1762880004.274737,1.26
1762880004.280973,1.18
1762880004.2871392,1.25
1762880004.2934048,1.27
1762880004.2997189,1.18
1762880004.306002,1.24
1762880004.312195,1.19
1762880004.31851,1.21
1762880004.3247309,1.3
1762880004.3311,1.17
1762880004.3371751,1.23
1762880004.3434072,1.24
1762880004.349748,1.13
1762880004.355984,1.18
1762880004.362271,1.11
1762880004.3683898,1.09
1762880004.3747032,1.18
1762880004.380851,1.09
1762880004.387118,1.13
1762880004.3935559,1.19
1762880004.399731,1.09
1762880004.40595,1.24
1762880004.412155,1.21
1762880004.418428,1.19
1762880004.424643,1.26
1762880004.430878,1.1
1762880004.4371881,1.17
1762880004.443389,1.22
1762880004.4496589,1.14
1762880004.455849,1.23
1762880004.4621818,1.15
1762880004.46834,1.14
1762880004.474601,1.32
1762880004.480874,1.18
1762880004.487194,1.16
1762880004.493361,1.26
1762880004.499607,1.21
1762880004.505866,1.29
1762880004.5120919,1.25
1762880004.518348,1.24
1762880004.5246441,1.35
1762880004.530879,1.23
1762880004.537096,1.39
1762880004.5433311,1.76
1762880004.5496058,2.41
1762880004.561156,3.16
1762880004.5772538,3.17
1762880004.577505,3.17
1762880004.600011,2.37
1762880004.6002219,0.51
1762880004.6223192,0.99
1762880004.622731,1.66
1762880004.6228638,1.27
1762880004.622978,1.1
1762880004.623093,1.23
1762880004.623199,1.24
1762880004.624626,1.24
1762880004.6312609,1.14
1762880004.637258,1.21
1762880004.643418,1.27
1762880004.651417,1.15
1762880004.655921,1.28
1762880004.6622689,1.27
1762880004.668673,1.2
1762880004.674622,1.3
1762880004.6810722,1.2
1762880004.687169,1.27
1762880004.693321,1.34
1762880004.699578,1.25
1762880004.70592,1.34
1762880004.712134,1.33
1762880004.718519,1.3
1762880004.724732,1.41
1762880004.730825,1.34
1762880004.7371001,1.4
1762880004.7432761,1.44
1762880004.750001,1.39
1762880004.755844,1.52
1762880004.762249,1.51
1762880004.7684312,1.52
1762880004.774744,1.61
1762880004.7811048,1.52
1762880004.787124,1.61
1762880004.793365,1.66
1762880004.7995799,1.57
1762880004.805953,1.67
1762880004.812321,1.62
1762880004.818333,1.55
1762880004.824746,1.61
1762880004.830765,1.51
1762880004.837149,1.49
1762880004.843531,1.43
1762880004.849518,1.3
1762880004.855684,1.38
1762880004.862011,1.31
1762880004.8683782,1.25
1762880004.8745751,1.31
1762880004.8809888,1.23
1762880004.887151,1.29
1762880004.893354,1.32
1762880004.899603,1.17
1762880004.905768,1.31
1762880004.9123,1.29
1762880004.918419,1.25
1762880004.924582,1.36
1762880004.930871,1.27
1762880004.9370408,1.27
1762880004.943346,1.34
1762880004.9496498,1.29
1762880004.9558778,1.39
1762880004.9623091,1.33
1762880004.968319,1.27
1762880004.974574,1.41
1762880004.9811242,1.36
1762880004.987039,1.35
1762880004.99327,1.4
1762880004.9995751,1.33
1762880005.005774,1.41
1762880005.0119622,1.38
1762880005.018256,1.38
1762880005.0245461,1.46
1762880005.030837,1.37
1762880005.03708,1.43
1762880005.043443,1.45
1762880005.049471,1.31
1762880005.055817,1.43
1762880005.0620658,1.43
1762880005.068574,1.38
1762880005.0744781,1.43
1762880005.080739,1.37
1762880005.124911,1.45
1762880005.137316,1.47
1762880005.137473,1.34
1762880005.140318,1.45
1762880005.1498659,1.44
1762880005.150017,1.42
1762880005.15848,1.52
1762880005.15868,1.42
1762880005.1588302,1.44
1762880005.158984,1.49
1762880005.159156,1.4
1762880005.1593459,1.5
1762880005.187365,1.48
1762880005.187739,1.44
1762880005.188055,1.51
1762880005.1882722,1.44
1762880005.1887,1.48
1762880005.193294,1.51
1762880005.199741,1.45
1762880005.205833,1.54
1762880005.2208378,1.51
1762880005.22117,1.4
1762880005.2245681,1.47
1762880005.233502,1.44
1762880005.237041,1.49
1762880005.243207,1.54
1762880005.249517,1.48
1762880005.255627,1.6
1762880005.2619781,1.57
1762880005.268488,1.51
1762880005.274521,1.63
1762880005.280722,1.54
1762880005.287103,1.53
1762880005.293313,1.56
1762880005.299666,1.49
1762880005.305696,1.59
1762880005.311996,1.54
1762880005.318238,1.5
1762880005.3245199,1.63
1762880005.330828,1.56
1762880005.337016,1.58
1762880005.343204,1.62
1762880005.349853,1.56
1762880005.355686,1.68
1762880005.361948,1.64
1762880005.368192,1.56
1762880005.3745458,1.71
1762880005.380717,1.71
1762880005.386861,1.82
1762880005.393109,2.1
1762880005.399841,2.63
1762880005.405709,3.17
1762880005.411884,3.17
1762880005.4181561,3.17
1762880005.4244978,3.16
1762880005.4306922,1.67
1762880005.436834,0.91
1762880005.44314,1.76
1762880005.449644,1.86
1762880005.4557068,1.55
1762880005.4619038,1.53
1762880005.4681659,1.58
1762880005.474394,1.65
1762880005.480792,1.52
1762880005.486867,1.55
1762880005.493115,1.65
1762880005.4997492,1.55
1762880005.505592,1.63
1762880005.512036,1.6
1762880005.5183418,1.56
1762880005.5244002,1.7
1762880005.530658,1.62
1762880005.536876,1.63
1762880005.5432,1.68
1762880005.54955,1.58
1762880005.5556328,1.71
1762880005.561842,1.7
1762880005.568183,1.64
1762880005.574388,1.74
1762880005.580634,1.71
1762880005.586924,1.74
1762880005.5931032,1.8
1762880005.599481,1.72
1762880005.605628,1.84
1762880005.611866,1.87
1762880005.618166,1.84
1762880005.624322,1.94
1762880005.630626,1.88
1762880005.6368792,1.89
1762880005.6431758,1.97
1762880005.649502,1.94
1762880005.655721,2.0
1762880005.6619442,1.95
1762880005.66821,1.89
1762880005.674356,1.97
1762880005.6807349,1.84
1762880005.686882,1.77
1762880005.693138,1.77
1762880005.6995358,1.63
1762880005.7056289,1.67
1762880005.7118158,1.62
1762880005.7182121,1.54
1762880005.7243378,1.6
1762880005.730759,1.51
1762880005.736854,1.54
1762880005.743149,1.58
1762880005.7493918,1.46
1762880005.7556639,1.53
1762880005.761802,1.55
1762880005.76814,1.51
1762880005.774413,1.59
1762880005.780533,1.5
1762880005.787006,1.53
1762880005.7931972,1.61
1762880005.799384,1.48
1762880005.8056152,1.56
1762880005.811841,1.59
1762880005.818174,1.52
1762880005.824353,1.61
1762880005.8307998,1.55
1762880005.836888,1.55
1762880005.84312,1.62
1762880005.849473,1.54
1762880005.8555908,1.61
1762880005.861977,1.58
1762880005.868219,1.52
1762880005.8744042,1.66
1762880005.880914,1.58
1762880005.886886,1.57
1762880005.893141,1.63
1762880005.899641,1.54
1762880005.9055831,1.6
1762880005.9118772,1.57
1762880005.918234,1.53
1762880005.9244978,1.63
1762880005.930666,1.53
1762880005.936917,1.55
1762880005.943079,1.65
1762880005.949673,1.52
1762880005.9556181,1.56
1762880005.961809,1.57
1762880005.968048,1.52
1762880005.974313,1.6
1762880005.980683,1.54
1762880005.986839,1.55
1762880005.993034,1.62
1762880005.999447,1.52
1762880006.0054882,1.6
1762880006.011746,1.58
1762880006.018029,1.49
1762880006.024352,1.6
1762880006.0305998,1.55
1762880006.036844,1.54
1762880006.043126,1.61
1762880006.049449,1.51
1762880006.055754,1.59
1762880006.0617962,1.59
1762880006.068079,1.52
1762880006.0743139,1.64
1762880006.080523,1.6
1762880006.086818,1.58
1762880006.0932548,1.62
1762880006.099384,1.48
1762880006.105481,1.55
1762880006.1117818,1.59
1762880006.124629,1.53
1762880006.1248078,1.63
1762880006.144159,1.58
1762880006.16523,1.61
1762880006.1666439,1.66
1762880006.1669,1.57
1762880006.167077,1.65
1762880006.167201,1.59
1762880006.169995,1.48
1762880006.185625,1.62
1762880006.189455,1.58
1762880006.189562,1.55
1762880006.193014,1.61
1762880006.1993668,1.55
1762880006.2067368,1.59
1762880006.212105,1.61
1762880006.2180412,1.56
1762880006.224312,1.63
1762880006.2305112,1.58
1762880006.23695,1.58
1762880006.243048,1.66
1762880006.249312,1.59
1762880006.255523,1.62
1762880006.2618701,1.67
1762880006.2681248,1.8
1762880006.274258,2.19
1762880006.280533,2.82
1762880006.2867808,3.17
1762880006.2930171,3.17
1762880006.299242,3.17
1762880006.305483,2.9
1762880006.311745,1.06
1762880006.3179882,1.05
1762880006.3241868,1.96
1762880006.3304908,1.73
1762880006.336767,1.37
1762880006.342976,1.53
1762880006.349211,1.54
1762880006.355525,1.54
1762880006.361708,1.52
1762880006.3679092,1.48
1762880006.3742049,1.55
1762880006.380482,1.49
1762880006.386772,1.51
1762880006.3929589,1.59
1762880006.3992152,1.47
1762880006.405417,1.56
1762880006.411733,1.59
1762880006.418085,1.5
1762880006.424167,1.6
1762880006.430429,1.56
1762880006.436783,1.57
1762880006.4429922,1.64
1762880006.449215,1.55
1762880006.455497,1.62
1762880006.461903,1.63
1762880006.4678888,1.61
1762880006.4742138,1.74
1762880006.4804192,1.68
1762880006.4866822,1.67
1762880006.493042,1.79
1762880006.500042,1.73
1762880006.505505,1.79
1762880006.5118022,1.84
1762880006.518163,1.79
1762880006.52418,1.87
1762880006.530487,1.85
1762880006.536702,1.86
1762880006.542926,1.92
1762880006.549311,1.79
1762880006.555397,1.81
1762880006.5616682,1.74
1762880006.5679,1.64
1762880006.574238,1.69
1762880006.58048,1.55
1762880006.586803,1.49
1762880006.5929222,1.52
1762880006.599282,1.38
1762880006.605484,1.43
1762880006.611617,1.46
1762880006.6179688,1.4
1762880006.624217,1.48
1762880006.6304598,1.4
1762880006.636689,1.39
1762880006.642974,1.46
1762880006.6502268,1.35
1762880006.6553879,1.42
1762880006.6617012,1.48
1762880006.667871,1.4
1762880006.674152,1.48
1762880006.680471,1.44
1762880006.6866162,1.44
1762880006.693239,1.49
1762880006.699209,1.4
1762880006.705354,1.51
1762880006.71157,1.53
1762880006.717869,1.41
1762880006.724138,1.49
1762880006.730421,1.49
1762880006.736656,1.5
1762880006.742904,1.54
1762880006.7491882,1.45
1762880006.7553952,1.51
1762880006.761642,1.51
1762880006.767872,1.41
1762880006.774155,1.55
1762880006.780397,1.5
1762880006.786599,1.46
1762880006.792911,1.52
1762880006.799474,1.45
1762880006.805336,1.52
1762880006.81164,1.53
1762880006.817863,1.45
1762880006.824129,1.52
1762880006.830538,1.47
1762880006.836737,1.44
1762880006.842834,1.55
1762880006.849232,1.47
1762880006.8553889,1.51
1762880006.861655,1.51
1762880006.867896,1.45
1762880006.8741171,1.55
1762880006.8804271,1.46
1762880006.886857,1.45
1762880006.8928409,1.57
1762880006.899144,1.48
1762880006.905427,1.52
1762880006.911624,1.54
1762880006.917824,1.48
1762880006.9241111,1.54
1762880006.930451,1.51
1762880006.936738,1.52
1762880006.943079,1.55
1762880006.9492521,1.46
1762880006.955287,1.52
1762880006.961597,1.56
1762880006.967853,1.48
1762880006.974097,1.52
1762880006.980321,1.46
1762880006.986615,1.46
1762880006.992893,1.54
1762880006.999177,1.47
1762880007.005322,1.54
1762880007.011612,1.62
1762880007.017907,1.53
1762880007.024048,1.59
1762880007.030369,1.57
1762880007.036574,1.53
1762880007.0429592,1.54
1762880007.049199,1.49
1762880007.055542,1.56
1762880007.06163,1.56
1762880007.067853,1.45
1762880007.074074,1.56
1762880007.080411,1.56
1762880007.0866518,1.52
1762880007.092809,1.6
1762880007.099243,1.51
1762880007.105286,1.56
1762880007.111605,1.58
1762880007.11798,1.51
1762880007.124023,1.63
1762880007.1303308,1.6
1762880007.136598,1.56
1762880007.1427982,1.69
1762880007.149056,1.77
1762880007.155312,2.16
1762880007.161579,3.02
1762880007.1677692,3.17
1762880007.174088,3.17
1762880007.180373,3.17
1762880007.186642,2.44
1762880007.1929102,0.91
1762880007.1992488,1.28
1762880007.2052631,1.9
1762880007.2116039,1.64
1762880007.217772,1.34
1762880007.2240572,1.53
1762880007.230429,1.55
1762880007.236678,1.47
1762880007.242843,1.52
1762880007.249095,1.46
1762880007.255287,1.5
1762880007.261537,1.55
1762880007.2677639,1.5
1762880007.274019,1.55
1762880007.2803211,1.51
1762880007.286551,1.52
1762880007.292762,1.62
1762880007.299381,1.54
1762880007.305263,1.56
1762880007.3114932,1.59
1762880007.317763,1.53
1762880007.3239849,1.64
1762880007.330267,1.62
1762880007.336546,1.59
1762880007.34286,1.69
1762880007.349173,1.63
1762880007.35534,1.69
1762880007.361609,1.73
1762880007.367729,1.66
1762880007.3739789,1.8
1762880007.38027,1.81
1762880007.386611,1.78
1762880007.3927948,1.85
1762880007.399065,1.78
1762880007.405298,1.84
1762880007.4115012,1.92
1762880007.417739,1.84
1762880007.423955,1.87
1762880007.430368,1.83
1762880007.436487,1.76
1762880007.4428449,1.79
1762880007.449103,1.66
1762880007.455266,1.65
1762880007.46152,1.63
1762880007.4678001,1.48
1762880007.473969,1.54
1762880007.48034,1.5
1762880007.486517,1.42
1762880007.492778,1.51
1762880007.499028,1.44
1762880007.5052748,1.47
1762880007.511501,1.48
1762880007.5177112,1.42
1762880007.523981,1.53
1762880007.530606,1.47
1762880007.536448,1.4
1762880007.542817,1.5
1762880007.551973,1.44
1762880007.56381,1.49
1762880007.574243,1.51
1762880007.578748,1.44
1762880007.579197,1.52
1762880007.624023,1.5
1762880007.629009,1.49
1762880007.647168,1.58
1762880007.647409,1.51
1762880007.647574,1.49
1762880007.647878,1.55
1762880007.6481721,1.47
1762880007.648438,1.57
1762880007.6487,1.54
1762880007.649017,1.5
1762880007.649655,1.56
1762880007.649963,1.5
1762880007.65538,1.5
1762880007.662405,1.54
1762880007.669377,1.48
1762880007.684829,1.57
1762880007.685121,1.53
1762880007.686974,1.5
1762880007.692724,1.55
1762880007.69919,1.48
1762880007.7052338,1.52
1762880007.7118,1.54
1762880007.717759,1.48
1762880007.724064,1.57
1762880007.730751,1.51
1762880007.736597,1.49
1762880007.742757,1.56
1762880007.749015,1.47
1762880007.755172,1.54
1762880007.761436,1.57
1762880007.767683,1.47
1762880007.773878,1.58
1762880007.780273,1.54
1762880007.786479,1.44
1762880007.792674,1.52
1762880007.79891,1.47
1762880007.805255,1.49
1762880007.811454,1.53
1762880007.817678,1.47
1762880007.8240051,1.62
1762880007.830573,1.6
1762880007.8364558,1.5
1762880007.842813,1.65
1762880007.8489878,1.57
1762880007.855219,1.48
1762880007.861453,1.55
1762880007.867627,1.54
1762880007.873856,1.56
1762880007.88027,1.52
1762880007.886394,1.49
1762880007.892761,1.57
1762880007.8989272,1.5
1762880007.905287,1.56
1762880007.91155,1.6
1762880007.9177191,1.5
1762880007.923887,1.59
1762880007.930225,1.59
1762880007.936448,1.57
1762880007.942816,1.66
1762880007.9489658,1.57
1762880007.955103,1.58
1762880007.961493,1.73
1762880007.967602,1.85
1762880007.973876,2.41
1762880007.980248,3.16
1762880007.986364,3.17
1762880007.992678,3.17
1762880007.998861,3.17
1762880008.0052018,2.05
1762880008.01141,0.88
1762880008.017654,1.41
1762880008.023833,1.84
1762880008.030139,1.53
1762880008.036434,1.34
1762880008.042659,1.56
1762880008.0488698,1.5
1762880008.055104,1.46
1762880008.061415,1.47
1762880008.06767,1.42
1762880008.073945,1.5
1762880008.080549,1.46
1762880008.086424,1.36
1762880008.092725,1.42
1762880008.098967,1.34
1762880008.105244,1.34
1762880008.111454,1.39
1762880008.117727,1.23
1762880008.123872,1.38
1762880008.1304882,1.45
1762880008.136415,1.35
1762880008.142706,1.41
1762880008.1489012,1.34
1762880008.155288,1.41
1762880008.161372,1.51
1762880008.167695,1.41
1762880008.173888,1.49
1762880008.180191,1.51
1762880008.1863139,1.48
1762880008.1926231,1.6
1762880008.198839,1.55
1762880008.205157,1.59
1762880008.211448,1.65
1762880008.217642,1.56
1762880008.2237692,1.67
1762880008.230218,1.7
1762880008.236375,1.62
1762880008.2426429,1.69
1762880008.248872,1.59
1762880008.25505,1.57
1762880008.261448,1.61
1762880008.2675729,1.44
1762880008.273748,1.47
1762880008.2801468,1.41
1762880008.286334,1.3
1762880008.292601,1.4
1762880008.298858,1.29
1762880008.305078,1.28
1762880008.311399,1.35
1762880008.317697,1.29
1762880008.323785,1.35
1762880008.3301032,1.32
1762880008.336321,1.27
1762880008.3426151,1.32
1762880008.348854,1.29
1762880008.355098,1.36
1762880008.361373,1.38
1762880008.367591,1.29
1762880008.37379,1.4
1762880008.380353,1.41
1762880008.3862941,1.36
1762880008.392607,1.43
1762880008.3987641,1.37
1762880008.405151,1.4
1762880008.411385,1.46
1762880008.417548,1.35
1762880008.42374,1.46
1762880008.43013,1.48
1762880008.4364002,1.39
1762880008.442683,1.48
1762880008.448887,1.41
1762880008.455084,1.43
1762880008.461301,1.52
1762880008.467576,1.42
1762880008.473834,1.44
1762880008.48015,1.43
1762880008.486433,1.42
1762880008.492542,1.52
1762880008.4988549,1.42
1762880008.505054,1.44
1762880008.511281,1.5
1762880008.51757,1.43
1762880008.5237849,1.48
1762880008.530116,1.47
1762880008.5362828,1.44
1762880008.542965,1.52
1762880008.548898,1.46
1762880008.555107,1.48
1762880008.56129,1.53
1762880008.5674849,1.45
1762880008.573764,1.5
1762880008.5802171,1.51
1762880008.586329,1.47
1762880008.592601,1.53
1762880008.598861,1.5
1762880008.6050072,1.52
1762880008.611382,1.52
1762880008.617602,1.47
1762880008.623788,1.51
1762880008.6301599,1.49
1762880008.636383,1.41
1762880008.642578,1.52
1762880008.648802,1.52
1762880008.655187,1.56
1762880008.6612859,1.6
1762880008.667552,1.5
1762880008.6737542,1.61
1762880008.680108,1.62
1762880008.686232,1.47
1762880008.6924942,1.57
1762880008.6988952,1.57
1762880008.705111,1.52
1762880008.711359,1.57
1762880008.7175412,1.53
1762880008.723853,1.6
1762880008.730379,1.57
1762880008.736419,1.54
1762880008.7425568,1.62
1762880008.748773,1.53
1762880008.755071,1.57
1762880008.7612789,1.64
1762880008.76753,1.54
1762880008.773761,1.62
1762880008.780044,1.66
1762880008.786156,1.65
1762880008.792487,1.85
1762880008.7987998,2.23
1762880008.804992,3.09
1762880008.8112361,3.17
1762880008.817555,3.17
1762880008.823701,3.17
1762880008.830192,2.77
1762880008.8362281,1.05
1762880008.842609,1.24
1762880008.848741,1.82
1762880008.8549829,1.68
1762880008.861532,1.47
1762880008.867433,1.46
1762880008.873698,1.59
1762880008.880043,1.52
1762880008.886442,1.47
1762880008.892489,1.6
1762880008.898706,1.52
1762880008.904931,1.5
1762880008.9112399,1.54
1762880008.917461,1.52
1762880008.923754,1.61
1762880008.929991,1.55
1762880008.936171,1.5
1762880008.94244,1.62
1762880008.948763,1.58
1762880008.954985,1.6
1762880008.961257,1.67
1762880008.967412,1.57
1762880008.9737191,1.64
1762880008.9800608,1.66
1762880008.986146,1.6
1762880008.992574,1.73
1762880009.006469,1.69
1762880009.0125031,1.7
1762880009.0171158,1.78
1762880009.0236979,1.72
1762880009.023867,1.8
1762880009.054765,1.82
1762880009.060607,1.8
1762880009.060742,1.91
1762880009.0645351,1.84
1762880009.070636,1.81
1762880009.070768,1.9
1762880009.0709288,1.85
1762880009.073708,1.85
1762880009.082724,1.82
1762880009.087744,1.72
1762880009.092567,1.74
1762880009.0987468,1.63
1762880009.104955,1.57
1762880009.111274,1.6
1762880009.117504,1.49
1762880009.123703,1.5
1762880009.1300302,1.51
1762880009.136387,1.43
1762880009.1424909,1.49
1762880009.1486468,1.46
1762880009.1550279,1.46
1762880009.161231,1.52
1762880009.167437,1.4
1762880009.173646,1.49
1762880009.1800718,1.52
1762880009.186223,1.43
1762880009.192405,1.53
1762880009.198669,1.47
1762880009.204879,1.45
1762880009.2111979,1.55
1762880009.217462,1.49
1762880009.22367,1.55
1762880009.229972,1.55
1762880009.2363,1.47
1762880009.242445,1.55
1762880009.248684,1.52
1762880009.254863,1.54
1762880009.261131,1.6
1762880009.267373,1.51
1762880009.273676,1.55
1762880009.279993,1.54
1762880009.2861178,1.5
1762880009.292434,1.59
1762880009.298831,1.51
1762880009.304965,1.5
1762880009.31125,1.58
1762880009.317442,1.52
1762880009.323661,1.54
1762880009.3301299,1.55
1762880009.336402,1.47
1762880009.342369,1.6
1762880009.34865,1.56
1762880009.354829,1.52
1762880009.361221,1.56
1762880009.367386,1.5
1762880009.3737411,1.56
1762880009.3799338,1.55
1762880009.386078,1.51
1762880009.392407,1.58
1762880009.3987148,1.52
1762880009.40491,1.51
1762880009.411266,1.57
1762880009.417373,1.51
1762880009.423597,1.54
1762880009.4299421,1.57
1762880009.436193,1.51
1762880009.442368,1.56
1762880009.4488409,1.53
1762880009.455116,1.57
1762880009.461201,1.61
1762880009.4674392,1.51
1762880009.4735842,1.56
1762880009.48003,1.59
1762880009.486207,1.52
1762880009.492352,1.54
1762880009.4986181,1.5
1762880009.504836,1.51
1762880009.511128,1.58
1762880009.51733,1.49
1762880009.5236769,1.57
1762880009.529906,1.65
1762880009.536108,1.56
1762880009.54241,1.59
1762880009.5485692,1.62
1762880009.554851,1.62
1762880009.561347,1.6
1762880009.567381,1.49
1762880009.573602,1.56
1762880009.5799549,1.6
1762880009.586068,1.52
1762880009.5924008,1.6
1762880009.598598,1.58
1762880009.60479,1.58
1762880009.61151,1.63
1762880009.617377,1.52
1762880009.6236002,1.6
1762880009.6299899,1.65
1762880009.636083,1.56
1762880009.642426,1.64
1762880009.648648,1.6
1762880009.654863,1.6
1762880009.6611068,1.84
1762880009.667275,2.08
1762880009.673574,2.87
1762880009.67978,3.17
1762880009.6860101,3.17
1762880009.692555,3.17
1762880009.698622,2.99
1762880009.704789,1.18
1762880009.7111318,1.09
1762880009.717298,1.79
1762880009.723549,1.74
1762880009.7302809,1.44
1762880009.7360198,1.41
1762880009.742285,1.57
1762880009.748595,1.52
1762880009.7548249,1.48
1762880009.761068,1.56
1762880009.767481,1.49
1762880009.773731,1.54
1762880009.780465,1.55
1762880009.786059,1.47
1762880009.792438,1.53
1762880009.798964,1.53
1762880009.804831,1.53
1762880009.8110878,1.59
1762880009.8174138,1.51
1762880009.823603,1.56
1762880009.829947,1.6
1762880009.8361259,1.52
1762880009.84244,1.62
1762880009.848608,1.59
1762880009.8547819,1.61
1762880009.8610601,1.7
1762880009.867316,1.62
1762880009.873565,1.67
1762880009.8804522,1.73
1762880009.886094,1.71
1762880009.893149,1.82
1762880009.8985898,1.78
1762880009.9047291,1.75
1762880009.9110138,1.87
1762880009.917242,1.79
1762880009.9234428,1.83
1762880009.929912,1.91
1762880009.9360828,1.82
1762880009.942281,1.87
1762880009.948483,1.77
1762880009.95472,1.72
1762880009.9609768,1.74
1762880009.967238,1.59
1762880009.973582,1.57
1762880009.9798331,1.56
1762880009.986013,1.44
1762880009.992456,1.5
1762880009.9984288,1.48
1762880010.0046809,1.42
1762880010.010972,1.47
1762880010.017329,1.41
1762880010.0235431,1.46
1762880010.0299048,1.47
1762880010.036196,1.39
1762880010.043175,1.48
1762880010.048492,1.44
1762880010.054689,1.42
1762880010.061009,1.52
1762880010.067295,1.44
1762880010.073555,1.46
1762880010.080034,1.5
1762880010.086027,1.46
1762880010.092194,1.55
1762880010.098588,1.51
1762880010.104825,1.43
1762880010.111188,1.55
1762880010.117279,1.5
1762880010.1235158,1.51
1762880010.1300101,1.55
1762880010.13605,1.49
1762880010.142496,1.57
1762880010.148491,1.54
1762880010.15471,1.51
1762880010.1609879,1.58
1762880010.167275,1.51
1762880010.173512,1.51
1762880010.1798348,1.53
1762880010.1860769,1.52
1762880010.192332,1.6
1762880010.1984499,1.53
1762880010.2046678,1.49
1762880010.21104,1.6
1762880010.217172,1.56
1762880010.2235022,1.55
1762880010.229708,1.57
1762880010.235939,1.51
1762880010.2422988,1.61
1762880010.2484858,1.58
1762880010.254645,1.52
1762880010.260997,1.61
1762880010.267442,1.56
1762880010.2734258,1.6
1762880010.279756,1.6
1762880010.285905,1.53
1762880010.2929962,1.63
1762880010.298404,1.6
1762880010.304628,1.57
1762880010.311,1.68
1762880010.317183,1.59
1762880010.323468,1.59
1762880010.329771,1.68
1762880010.3359349,1.61
1762880010.342185,1.66
1762880010.3484778,1.64
1762880010.354738,1.61
1762880010.361075,1.72
1762880010.367135,1.64
1762880010.373457,1.68
1762880010.37976,1.71
1762880010.385994,1.62
1762880010.392666,1.75
1762880010.3984919,1.74
1762880010.4047732,1.64
1762880010.4112792,1.74
1762880010.4638772,1.73
1762880010.467617,1.77
1762880010.467829,1.78
1762880010.468032,1.68
1762880010.4682298,1.79
1762880010.468429,1.75
1762880010.468628,1.66
1762880010.468979,1.77
1762880010.4691808,1.7
1762880010.4937248,1.74
1762880010.493981,1.77
1762880010.494198,1.68
1762880010.49441,1.82
1762880010.501175,1.79
1762880010.549943,1.74
1762880010.550377,1.86
1762880010.550736,1.8
1762880010.550957,1.81
1762880010.551171,1.86
1762880010.5513852,1.79
1762880010.551596,1.9
1762880010.551809,1.9
1762880010.554604,1.96
1762880010.5614579,2.27
1762880010.567272,2.75
1762880010.573903,3.17
1762880010.5796869,3.17
1762880010.585941,3.18
1762880010.59224,3.17
1762880010.5984561,2.7
1762880010.6046479,1.3
1762880010.610913,1.68
1762880010.6172822,2.19
1762880010.6235259,1.98
1762880010.629691,1.8
1762880010.63595,1.8
1762880010.6422322,1.95
1762880010.648432,1.91
1762880010.654689,1.85
1762880010.660906,1.97
1762880010.667237,1.89
1762880010.673413,1.9
1762880010.679945,1.98
1762880010.685961,1.91
1762880010.6921558,1.99
1762880010.698478,1.96
1762880010.704685,1.94
1762880010.710974,2.09
1762880010.717199,2.0
1762880010.723356,1.99
1762880010.72972,2.06
1762880010.735873,2.02
1762880010.742124,2.14
1762880010.748422,2.1
1762880010.754671,2.03
1762880010.760906,2.19
1762880010.767097,2.15
1762880010.773345,2.17
1762880010.77985,2.27
1762880010.785825,2.18
1762880010.792198,2.26
1762880010.798367,2.31
1762880010.8052852,2.3
1762880010.8109639,2.38
1762880010.817249,2.29
1762880010.823483,2.33
1762880010.829725,2.41
1762880010.835974,2.28
1762880010.842189,2.32
1762880010.848424,2.28
1762880010.854621,2.14
1762880010.86093,2.19
1762880010.8670862,2.04
1762880010.873352,1.99
1762880010.87969,2.04
1762880010.885847,1.89
1762880010.8921149,1.91
1762880010.898377,1.9
1762880010.904611,1.82
1762880010.9109418,1.9
1762880010.917519,1.8
1762880010.923338,1.8
1762880010.929766,1.88
1762880010.935945,1.79
1762880010.942162,1.84
1762880010.948395,1.83
1762880010.954628,1.75
1762880010.961633,1.86
1762880010.967127,1.79
1762880010.9733582,1.78
1762880010.9796119,1.86
1762880010.985835,1.74
1762880010.992157,1.8
1762880010.998351,1.83
1762880011.0046048,1.78
1762880011.0111501,1.87
1762880011.017051,1.75
1762880011.023324,1.76
1762880011.029671,1.86
1762880011.03583,1.75
1762880011.042603,1.8
1762880011.048316,1.77
1762880011.054583,1.71
1762880011.0609322,1.83
1762880011.067212,1.73
1762880011.07343,1.7
1762880011.079618,1.81
1762880011.085846,1.71
1762880011.093079,1.74
1762880011.098319,1.72
1762880011.104542,1.67
1762880011.110776,1.78
1762880011.1171541,1.68
1762880011.1232882,1.67
1762880011.129448,1.75
1762880011.135802,1.65
1762880011.142411,1.68
1762880011.1482391,1.67
1762880011.154559,1.65
1762880011.160845,1.74
1762880011.167138,1.63
1762880011.173304,1.61
1762880011.179559,1.71
1762880011.185847,1.58
1762880011.1922162,1.64
1762880011.1983209,1.68
1762880011.2045171,1.59
1762880011.210817,1.66
1762880011.2170181,1.59
1762880011.223259,1.62
1762880011.229555,1.69
1762880011.235991,1.59
1762880011.242143,1.74
1762880011.248217,1.75
1762880011.254554,1.6
1762880011.2614558,1.74
1762880011.2670689,1.75
1762880011.2734022,1.71
1762880011.279646,1.72
1762880011.286109,1.57
1762880011.292244,1.66
1762880011.298282,1.59
1762880011.304544,1.44
1762880011.310858,1.56
1762880011.317172,1.52
1762880011.323503,1.49
1762880011.32967,1.52
1762880011.335809,1.41
1762880011.342122,1.49
1762880011.348373,1.51
1762880011.354788,1.43
1762880011.3612769,1.52
1762880011.3671901,1.46
1762880011.373631,1.44
1762880011.379694,1.51
1762880011.38583,1.43
1762880011.392246,1.51
1762880011.3982122,1.5
1762880011.4045188,1.4
1762880011.411121,1.49
1762880011.417129,1.45
1762880011.423276,1.59
1762880011.429719,1.94
1762880011.4359412,2.47
1762880011.4423301,3.17
1762880011.4484239,3.17
1762880011.4548101,3.17
1762880011.460927,2.44
1762880011.467098,0.58
1762880011.473291,1.02
1762880011.479626,1.84
1762880011.4857862,1.38
1762880011.492026,1.17
1762880011.498282,1.35
1762880011.5046668,1.31
1762880011.510856,1.3
1762880011.5171149,1.23
1762880011.5232499,1.28
1762880011.529526,1.32
1762880011.535954,1.19
1762880011.542069,1.28
1762880011.5483189,1.29
1762880011.554772,1.2
1762880011.560765,1.3
1762880011.56722,1.23
1762880011.573319,1.19
1762880011.579508,1.29
1762880011.5858188,1.23
1762880011.592572,1.29
1762880011.598321,1.29
1762880011.604608,1.23
1762880011.6107671,1.33
1762880011.617153,1.27
1762880011.62328,1.29
1762880011.62967,1.41
1762880011.635808,1.32
1762880011.643543,1.37
1762880011.648361,1.42
1762880011.6544662,1.39
1762880011.660735,1.5
1762880011.666965,1.45
1762880011.673308,1.45
1762880011.679486,1.52
1762880011.685688,1.43
1762880011.6929128,1.54
1762880011.698299,1.53
1762880011.7044969,1.43
1762880011.7107499,1.5
1762880011.7170491,1.4
1762880011.72353,1.33
1762880011.729409,1.33
1762880011.735629,1.19
1762880011.742961,1.24
1762880011.7482681,1.21
1762880011.754623,1.07
1762880011.760844,1.14
1762880011.766906,1.09
1762880011.77329,1.09
1762880011.779592,1.16
1762880011.785887,1.06
1762880011.792085,1.1
1762880011.7983308,1.09
1762880011.804605,1.04
1762880011.810691,1.18
1762880011.817214,1.14
1762880011.823297,1.1
1762880011.829557,1.12
1762880011.835706,1.06
1762880011.842012,1.18
1762880011.848324,1.2
1762880011.85451,1.09
1762880011.861079,1.21
1762880011.867033,1.2
1762880011.873156,1.15
1762880011.879655,1.19
1762880011.88582,1.15
1762880011.891955,1.23
1762880011.898308,1.22
1762880011.9046478,1.11
1762880011.910764,1.22
1762880011.917057,1.2
1762880011.923248,1.17
1762880011.929451,1.24
1762880011.9357839,1.15
1762880011.941956,1.19
1762880011.9482849,1.21
1762880011.9545999,1.11
1762880011.960719,1.24
1762880011.967038,1.21
1762880011.973134,1.16
1762880011.9793532,1.23
1762880011.9856288,1.15
1762880011.9942122,1.22
1762880011.9982982,1.23
1762880012.004548,1.15
1762880012.011134,1.24
1762880012.017199,1.19
1762880012.023297,1.19
1762880012.029401,1.25
1762880012.035638,1.17
1762880012.042026,1.21
1762880012.048279,1.26
1762880012.054409,1.19
1762880012.06086,1.31
1762880012.0671911,1.31
1762880012.073146,1.29
1762880012.079489,1.41
1762880012.0857222,1.41
1762880012.0919812,1.47
1762880012.098309,1.45
1762880012.104393,1.29
1762880012.110722,1.41
1762880012.117024,1.35
1762880012.1231308,1.22
1762880012.129525,1.22
1762880012.135762,1.17
1762880012.141857,1.23
1762880012.15111,1.21
1762880012.18644,1.14
1762880012.189376,1.25
1762880012.1961322,1.21
1762880012.196401,1.18
1762880012.196523,1.26
1762880012.196644,1.18
1762880012.1967628,1.25
1762880012.203545,1.28
1762880012.206957,1.18
1762880012.213763,1.29
1762880012.216952,1.27
1762880012.223099,1.29
1762880012.229957,1.34
1762880012.2355661,1.25
1762880012.241909,1.4
1762880012.248389,1.57
1762880012.2543979,1.88
1762880012.260772,2.81
1762880012.26687,3.16
1762880012.2731059,3.17
1762880012.279393,3.15
1762880012.285598,1.42
1762880012.292008,0.59
1762880012.2982159,1.46
1762880012.304372,1.52
1762880012.310598,1.25
1762880012.3168268,1.16
1762880012.32306,1.28
1762880012.329313,1.36
1762880012.335721,1.21
1762880012.341865,1.27
1762880012.3482728,1.35
1762880012.35441,1.27
1762880012.3607721,1.33
1762880012.3669949,1.32
1762880012.3731751,1.3
1762880012.3792582,1.39
1762880012.385555,1.3
1762880012.391895,1.38
1762880012.398005,1.42
1762880012.404308,1.35
1762880012.410597,1.46
1762880012.416822,1.42
1762880012.423063,1.41
1762880012.4293408,1.5
1762880012.435586,1.45
1762880012.441854,1.49
1762880012.4480152,1.52
1762880012.4542038,1.5
1762880012.460591,1.6
1762880012.466811,1.57
1762880012.4730759,1.59
1762880012.479327,1.68
1762880012.485544,1.64
1762880012.491798,1.7
1762880012.498006,1.74
1762880012.504274,1.65
1762880012.5108,1.73
1762880012.51672,1.71
1762880012.523069,1.69
1762880012.529214,1.76
1762880012.5354722,1.6
1762880012.541783,1.59
1762880012.547949,1.58
1762880012.5542269,1.46
1762880012.560458,1.47
1762880012.5668778,1.39
1762880012.5729752,1.35
1762880012.579338,1.39
1762880012.5854661,1.32
1762880012.591845,1.34
1762880012.598,1.35
1762880012.604225,1.29
1762880012.610485,1.36
1762880012.616728,1.31
1762880012.623032,1.31
1762880012.6292338,1.41
1762880012.635514,1.31
1762880012.641752,1.32
1762880012.647939,1.38
1762880012.654218,1.35
1762880012.660776,1.42
1762880012.666686,1.38
1762880012.67304,1.37
1762880012.6792488,1.45
1762880012.6854882,1.39
1762880012.69179,1.39
1762880012.69795,1.42
1762880012.7041569,1.37
1762880012.710469,1.5
1762880012.7166631,1.42
1762880012.7233431,1.39
1762880012.729239,1.51
1762880012.735484,1.4
1762880012.741744,1.4
1762880012.747988,1.46
1762880012.7542489,1.39
1762880012.760551,1.45
1762880012.7666528,1.38
1762880012.7729568,1.34
1762880012.779231,1.46
1762880012.7854662,1.41
1762880012.7919822,1.42
1762880012.797968,1.41
1762880012.804062,1.33
1762880012.8109,1.44
1762880012.816949,1.46
1762880012.823085,1.44
1762880012.8292742,1.56
1762880012.835718,1.47
1762880012.84226,1.47
1762880012.848174,1.6
1762880012.854317,1.6
1762880012.86064,1.65
1762880012.8667688,1.49
1762880012.873666,1.47
1762880012.87922,1.52
1762880012.8855538,1.3
1762880012.891744,1.3
1762880012.897913,1.39
1762880012.904242,1.27
1762880012.9108539,1.31
1762880012.916929,1.3
1762880012.923743,1.28
1762880012.9293172,1.36
1762880012.9355469,1.32
1762880012.941901,1.33
1762880012.947891,1.36
1762880012.954151,1.3
1762880012.960408,1.38
1762880012.96668,1.33
1762880012.973577,1.35
1762880012.979163,1.44
1762880012.9854012,1.37
1762880012.991692,1.41
1762880012.9979148,1.43
1762880013.004224,1.39
1762880013.01045,1.59
1762880013.016709,1.82
1762880013.023127,2.48
1762880013.029255,3.17
1762880013.035451,3.17
1762880013.041654,3.17
1762880013.04794,2.69
1762880013.054174,0.76
1762880013.060687,0.99
1762880013.066699,1.62
1762880013.072994,1.4
1762880013.079463,1.28
1762880013.085614,1.3
1762880013.0932338,1.37
1762880013.09819,1.35
1762880013.1042628,1.29
1762880013.110949,1.39
1762880013.11675,1.37
1762880013.123046,1.33
1762880013.129388,1.39
1762880013.135484,1.38
1762880013.141692,1.43
1762880013.1480918,1.46
1762880013.154193,1.41
1762880013.1606379,1.49
1762880013.166785,1.47
1762880013.173492,1.46
1762880013.1792178,1.55
1762880013.185598,1.5
1762880013.191972,1.57
1762880013.1981819,1.61
1762880013.204297,1.51
1762880013.210986,1.63
1762880013.216738,1.68
1762880013.223593,1.64
1762880013.229166,1.73
1762880013.235481,1.69
1762880013.241714,1.74
1762880013.247884,1.86
1762880013.254142,1.8
1762880013.260442,1.83
1762880013.266643,1.82
1762880013.2730591,1.81
1762880013.279201,1.91
1762880013.2854521,1.84
1762880013.2918038,1.83
1762880013.2977788,1.81
1762880013.3041668,1.72
1762880013.310399,1.74
1762880013.316564,1.66
1762880013.322923,1.58
1762880013.3291678,1.63
1762880013.335316,1.53
1762880013.341855,1.52
1762880013.3478248,1.53
1762880013.354134,1.49
1762880013.360354,1.54
1762880013.36656,1.5
1762880013.3728561,1.5
1762880013.3791392,1.57
1762880013.385399,1.53
1762880013.391916,1.54
1762880013.3977962,1.56
1762880013.404056,1.48
1762880013.41029,1.57
1762880013.4165928,1.57
1762880013.422865,1.53
1762880013.429142,1.59
1762880013.435322,1.56
1762880013.441584,1.57
1762880013.4477818,1.61
1762880013.454041,1.56
1762880013.460308,1.65
1762880013.4666,1.61
1762880013.4730408,1.55
1762880013.479105,1.65
1762880013.485302,1.63
1762880013.491637,1.63
1762880013.497782,1.65
1762880013.504074,1.59
1762880013.5102348,1.66
1762880013.516635,1.62
1762880013.522874,1.58
1762880013.529134,1.66
1762880013.535352,1.6
1762880013.542073,1.61
1762880013.547764,1.63
1762880013.554081,1.55
1762880013.569933,1.63
1762880013.5701382,1.62
1762880013.6289291,1.59
1762880013.629279,1.67
1762880013.6297421,1.65
1762880013.630126,1.71
1762880013.6304388,1.75
1762880013.6305962,1.7
1762880013.630761,1.85
1762880013.630916,1.89
1762880013.631156,1.75
1762880013.6312928,1.76
1762880013.635319,1.74
1762880013.6426811,1.68
1762880013.6478012,1.62
1762880013.654075,1.52
1762880013.660547,1.58
1762880013.6667252,1.55
1762880013.672878,1.48
1762880013.679109,1.56
1762880013.685431,1.52
1762880013.69178,1.52
1762880013.697844,1.59
1762880013.7039628,1.53
1762880013.7108579,1.54
1762880013.716631,1.52
1762880013.7235808,1.52
1762880013.7290912,1.6
1762880013.735285,1.53
1762880013.7415848,1.55
1762880013.747632,1.59
1762880013.754112,1.52
1762880013.76086,1.59
1762880013.766517,1.64
1762880013.772798,1.74
1762880013.779104,2.14
1762880013.785274,2.81
1762880013.7916312,3.17
1762880013.797898,3.17
1762880013.804128,3.17
1762880013.8102531,2.89
1762880013.816533,1.05
1762880013.822839,1.04
1762880013.829002,1.87
1762880013.835211,1.67
1762880013.841686,1.35
1762880013.847672,1.46
1762880013.854053,1.49
1762880013.860211,1.52
1762880013.8665202,1.46
1762880013.8727949,1.44
1762880013.879024,1.54
1762880013.885252,1.51
1762880013.891952,1.49
1762880013.8977752,1.52
1762880013.9040298,1.49
1762880013.9102988,1.53
1762880013.916516,1.55
1762880013.922755,1.53
1762880013.928957,1.59
1762880013.935204,1.54
1762880013.941563,1.56
1762880013.9477508,1.62
1762880013.954252,1.57
1762880013.960295,1.64
1762880013.966681,1.64
1762880013.972793,1.6
1762880013.979074,1.69
1762880013.9852958,1.71
1762880013.9916859,1.74
1762880013.998025,1.8
1762880014.004276,1.74
1762880014.010617,1.83
1762880014.0166762,1.86
1762880014.022848,1.81
1762880014.029081,1.89
1762880014.0352519,1.85
1762880014.0415401,1.86
1762880014.04781,1.92
1762880014.054113,1.78
1762880014.06038,1.76
1762880014.066723,1.74
1762880014.0727549,1.66
1762880014.079019,1.67
1762880014.08522,1.55
1762880014.093091,1.51
1762880014.097924,1.53
1762880014.104257,1.44
1762880014.110379,1.48
1762880014.116468,1.47
1762880014.122786,1.44
1762880014.1291158,1.52
1762880014.135251,1.43
1762880014.141666,1.42
1762880014.1476648,1.51
1762880014.153916,1.45
1762880014.160183,1.5
1762880014.166523,1.52
1762880014.1730108,1.49
1762880014.179001,1.54
1762880014.185185,1.48
1762880014.192128,1.5
1762880014.197692,1.6
1762880014.203938,1.54
1762880014.210277,1.58
1762880014.2164721,1.56
1762880014.223018,1.52
1762880014.2289221,1.65
1762880014.23513,1.61
1762880014.242039,1.57
1762880014.2476401,1.62
1762880014.25405,1.58
1762880014.260128,1.65
1762880014.2664268,1.64
1762880014.2727292,1.58
1762880014.278869,1.63
1762880014.28509,1.58
1762880014.291539,1.6
1762880014.297618,1.67
1762880014.3039072,1.59
1762880014.310216,1.61
1762880014.316395,1.62
1762880014.322647,1.57
1762880014.328959,1.64
1762880014.335189,1.6
1762880014.34207,1.59
1762880014.347562,1.67
1762880014.353952,1.59
1762880014.360487,1.61
1762880014.3664231,1.61
1762880014.372672,1.54
1762880014.378921,1.62
1762880014.3851871,1.59
1762880014.392098,1.63
1762880014.397675,1.76
1762880014.403936,1.69
1762880014.410507,1.68
1762880014.4165828,1.77
1762880014.4227421,1.83
1762880014.428878,1.88
1762880014.435189,1.72
1762880014.4414349,1.71
1762880014.4476779,1.75
1762880014.453896,1.57
1762880014.460276,1.57
1762880014.4663548,1.54
1762880014.472775,1.49
1762880014.4789271,1.53
1762880014.485085,1.48
1762880014.491889,1.48
1762880014.497812,1.55
1762880014.503886,1.45
1762880014.510159,1.47
1762880014.516341,1.53
1762880014.5226061,1.48
1762880014.528886,1.52
1762880014.535199,1.49
1762880014.5416908,1.5
1762880014.5476952,1.55
1762880014.5537221,1.48
1762880014.560301,1.55
1762880014.5663779,1.56
1762880014.572714,1.51
1762880014.578874,1.72
1762880014.585064,1.92
1762880014.591552,2.55
1762880014.597574,3.17
1762880014.6037729,3.17
1762880014.610071,3.17
1762880014.6165278,3.03
1762880014.622668,1.08
1762880014.628957,0.93
1762880014.6351519,1.77
1762880014.642216,1.67
1762880014.647848,1.35
1762880014.653831,1.34
1762880014.66012,1.5
1762880014.666396,1.47
1762880014.672727,1.35
1762880014.6790369,1.43
1762880014.6852312,1.44
1762880014.692183,1.44
1762880014.697602,1.48
1762880014.703984,1.42
1762880014.710144,1.47
1762880014.716306,1.5
1762880014.722678,1.44
1762880014.728843,1.52
1762880014.73505,1.49
1762880014.741518,1.49
1762880014.747537,1.58
1762880014.753935,1.51
1762880014.7602072,1.53
1762880014.766603,1.58
1762880014.772622,1.55
1762880014.778972,1.64
1762880014.785247,1.6
1762880014.7914932,1.59
1762880014.797628,1.72
1762880014.803987,1.68
1762880014.810225,1.7
1762880014.816561,1.75
1762880014.822575,1.77
1762880014.829015,1.84
1762880014.835134,1.77
1762880014.842148,1.77
1762880014.84765,1.87
1762880014.8539038,1.79
1762880014.860189,1.76
1762880014.866451,1.75
1762880014.8726358,1.66
1762880014.878877,1.67
1762880014.885078,1.55
1762880014.892621,1.48
1762880014.8976798,1.51
1762880014.904025,1.41
1762880014.910722,1.39
1762880014.916578,1.4
1762880014.922859,1.38
1762880014.928981,1.43
1762880014.935411,1.34
1762880014.941518,1.34
1762880014.947541,1.42
1762880014.9538078,1.35
1762880014.960001,1.38
1762880014.9662652,1.41
1762880014.972898,1.36
1762880014.97875,1.42
1762880014.984996,1.36
1762880014.996402,1.38
1762880015.02236,1.48
1762880015.055082,1.37
1762880015.0592341,1.43
1762880015.0596101,1.49
1762880015.059812,1.4
1762880015.061663,1.45
1762880015.0620108,1.45
1762880015.06355,1.47
1762880015.063829,1.5
1762880015.0665169,1.4
1762880015.067481,1.47
1762880015.0677052,1.51
1762880015.072628,1.45
1762880015.090189,1.5
1762880015.099025,1.47
1762880015.099334,1.45
1762880015.099679,1.48
1762880015.10417,1.42
1762880015.11112,1.48
1762880015.11636,1.49
1762880015.1226199,1.43
1762880015.128906,1.5
1762880015.1350021,1.46
1762880015.141388,1.44
1762880015.147566,1.5
1762880015.1538079,1.46
1762880015.160404,1.48
1762880015.166357,1.48
1762880015.1726022,1.4
1762880015.179389,1.5
1762880015.1850638,1.49
1762880015.191346,1.45
1762880015.197595,1.51
1762880015.203857,1.44
1762880015.2100852,1.48
1762880015.216299,1.52
1762880015.2225459,1.47
1762880015.228737,1.52
1762880015.234978,1.47
1762880015.24287,1.44
1762880015.247508,1.52
1762880015.253727,1.5
1762880015.260062,1.53
1762880015.266622,1.56
1762880015.273673,1.56
1762880015.278719,1.64
1762880015.284996,1.6
1762880015.2912471,1.62
1762880015.297492,1.79
1762880015.303936,1.71
1762880015.310109,1.6
1762880015.3162591,1.64
1762880015.322455,1.59
1762880015.328775,1.6
1762880015.335019,1.51
1762880015.341335,1.45
1762880015.347465,1.49
1762880015.3537621,1.42
1762880015.3599539,1.46
1762880015.366217,1.5
1762880015.372648,1.43
1762880015.378736,1.5
1762880015.384937,1.46
1762880015.39126,1.45
1762880015.3974311,1.54
1762880015.40388,1.47
1762880015.409879,1.47
1762880015.416117,1.51
1762880015.422679,1.49
1762880015.4286458,1.55
1762880015.435138,1.52
1762880015.44255,1.47
1762880015.447434,1.57
1762880015.453727,1.61
1762880015.459889,1.82
1762880015.46618,2.39
1762880015.473836,3.16
1762880015.478786,3.17
1762880015.48503,3.17
1762880015.491341,3.13
1762880015.497482,1.38
1762880015.5038662,0.76
1762880015.5100548,1.68
1762880015.516223,1.83
1762880015.522605,1.33
1762880015.529335,1.38
1762880015.535021,1.54
1762880015.541239,1.47
1762880015.547495,1.48
1762880015.55374,1.43
1762880015.5599868,1.47
1762880015.5662389,1.51
1762880015.572741,1.43
1762880015.578839,1.52
1762880015.585027,1.51
1762880015.591532,1.46
1762880015.5974588,1.54
1762880015.603735,1.5
1762880015.610281,1.54
1762880015.616181,1.58
1762880015.622517,1.53
1762880015.6286972,1.59
1762880015.6349828,1.58
1762880015.6411939,1.54
1762880015.647407,1.64
1762880015.653839,1.64
1762880015.659969,1.67
1762880015.666178,1.72
1762880015.67245,1.67
1762880015.678713,1.75
1762880015.684942,1.78
1762880015.691225,1.75
1762880015.697394,1.87
1762880015.7039812,1.81
1762880015.709949,1.79
1762880015.716147,1.87
1762880015.722452,1.87
1762880015.728699,1.93
1762880015.735064,1.85
1762880015.742054,1.78
1762880015.747361,1.84
1762880015.7538319,1.7
1762880015.759851,1.65
1762880015.766135,1.66
1762880015.772557,1.52
1762880015.7786329,1.52
1762880015.784945,1.5
1762880015.791561,1.44
1762880015.797355,1.49
1762880015.803691,1.41
1762880015.809856,1.43
1762880015.8161228,1.47
1762880015.825832,1.41
1762880015.828663,1.44
1762880015.83487,1.42
1762880015.841253,1.44
1762880015.847347,1.52
1762880015.853645,1.42
1762880015.860058,1.45
1762880015.866169,1.49
1762880015.874361,1.47
1762880015.9017532,1.54
1762880015.902055,1.51
1762880015.90225,1.46
1762880015.9024599,1.52
1762880015.9106429,1.47
1762880015.911157,1.51
1762880015.916116,1.55
1762880015.9306712,1.48
1762880015.9310029,1.52
1762880015.9348931,1.52
1762880015.941301,1.52
1762880015.9474182,1.57
1762880015.95379,1.5
1762880015.959996,1.54
1762880015.966112,1.56
1762880015.972428,1.46
1762880015.978699,1.55
1762880015.9852521,1.54
1762880015.99177,1.47
1762880015.997391,1.54
1762880016.0036922,1.5
1762880016.009912,1.51
1762880016.016094,1.55
1762880016.023366,1.48
1762880016.028607,1.54
1762880016.034891,1.53
1762880016.041311,1.47
1762880016.047355,1.54
1762880016.0537431,1.52
