timestamp,ecg_value
1764751493.484122,1.52
1764751493.4904919,1.59
1764751493.496758,1.53
1764751493.50295,1.6
1764751493.509453,1.56
1764751493.5153751,1.52
1764751493.521618,1.63
1764751493.52789,1.57
1764751493.534212,1.59
1764751493.540514,1.64
1764751493.546734,1.55
1764751493.552976,1.6
1764751493.559285,1.6
1764751493.565442,1.58
1764751493.571689,1.66
1764751493.577922,1.59
1764751493.5841799,1.6
1764751493.5906482,1.63
1764751493.596619,1.53
1764751493.6029282,1.65
1764751493.6092238,1.62
1764751493.615396,1.53
1764751493.621633,1.64
1764751493.627873,1.59
1764751493.634102,1.59
1764751493.640424,1.62
1764751493.646657,1.55
1764751493.6529112,1.64
1764751493.6595771,1.58
1764751493.6653771,1.54
1764751493.671535,1.63
1764751493.67797,1.55
1764751493.6839738,1.59
1764751493.690392,1.61
1764751493.696785,1.52
1764751493.7029681,1.62
1764751493.709316,1.6
1764751493.715373,1.54
1764751493.7220988,1.65
1764751493.7279801,1.55
1764751493.734219,1.52
1764751493.740426,1.61
1764751493.746739,1.56
1764751493.7540228,1.61
1764751493.759855,1.57
1764751493.765364,1.57
1764751493.7718039,1.73
1764751493.7778502,1.62
1764751493.784211,1.65
1764751493.790421,1.76
1764751493.796671,1.64
1764751493.802877,1.65
1764751493.8092842,1.58
1764751493.8156958,1.58
1764751493.8217862,1.59
1764751493.8280032,1.42
1764751493.8342001,1.47
1764751493.8404229,1.54
1764751493.846747,1.41
1764751493.852992,1.49
1764751493.859443,1.49
1764751493.8654048,1.43
1764751493.871645,1.52
1764751493.8779268,1.43
1764751493.884228,1.46
1764751493.890378,1.54
1764751493.896713,1.45
1764751493.9029078,1.53
1764751493.909446,1.48
1764751493.9152691,1.46
1764751493.921588,1.66
1764751493.927862,1.78
1764751493.934315,2.41
1764751493.9403641,3.08
1764751493.946624,2.87
1764751493.952886,2.29
1764751493.9593549,1.22
1764751493.965326,1.05
1764751493.97162,1.6
1764751493.9778821,1.56
1764751493.9841878,1.45
1764751493.990292,1.52
1764751493.9965959,1.46
1764751494.002899,1.5
1764751494.009442,1.44
1764751494.0154529,1.48
1764751494.021607,1.57
1764751494.0278258,1.42
1764751494.03411,1.48
1764751494.042918,1.59
1764751494.065482,1.48
1764751494.080776,1.54
1764751494.0953379,1.54
1764751494.1115441,1.5
1764751494.111829,1.57
1764751494.11202,1.53
1764751494.112294,1.56
1764751494.112415,1.58
1764751494.112538,1.53
1764751494.112664,1.63
1764751494.1127932,1.6
1764751494.115354,1.56
1764751494.121616,1.67
1764751494.132823,1.6
1764751494.134165,1.65
1764751494.140417,1.71
1764751494.147017,1.63
1764751494.152771,1.75
1764751494.1592479,1.73
1764751494.165312,1.68
1764751494.171616,1.77
1764751494.1778822,1.72
1764751494.184135,1.76
1764751494.190275,1.78
1764751494.19664,1.66
1764751494.20277,1.77
1764751494.209538,1.75
1764751494.215331,1.65
1764751494.221579,1.65
1764751494.227797,1.57
1764751494.234061,1.6
1764751494.2403278,1.57
1764751494.246691,1.47
1764751494.252796,1.58
1764751494.259257,1.51
1764751494.265302,1.44
1764751494.271521,1.57
1764751494.2777998,1.48
1764751494.284041,1.47
1764751494.2904,1.53
1764751494.2966,1.45
1764751494.302763,1.55
1764751494.3100579,1.52
1764751494.316051,1.46
1764751494.321492,1.59
1764751494.327797,1.49
1764751494.334059,1.54
1764751494.3407402,1.61
1764751494.34675,1.46
1764751494.3528209,1.56
1764751494.3595111,1.61
1764751494.365473,1.53
1764751494.371537,1.57
1764751494.377676,1.51
1764751494.384005,1.59
1764751494.390306,1.62
1764751494.3966138,1.49
1764751494.402805,1.6
1764751494.409151,1.58
1764751494.415335,1.51
1764751494.421453,1.61
1764751494.428096,1.53
1764751494.434156,1.55
1764751494.440421,1.58
1764751494.446642,1.49
1764751494.452908,1.59
1764751494.459164,1.55
1764751494.46543,1.51
1764751494.471688,1.63
1764751494.477767,1.55
1764751494.4840388,1.54
1764751494.4904718,1.59
1764751494.496639,1.53
1764751494.5027971,1.58
1764751494.509111,1.55
1764751494.5154078,1.53
1764751494.5215502,1.62
1764751494.527755,1.53
1764751494.534047,1.63
1764751494.540274,1.73
1764751494.546495,1.66
1764751494.552864,1.79
1764751494.5597498,1.73
1764751494.565234,1.65
1764751494.571469,1.72
1764751494.577698,1.63
1764751494.5840662,1.64
1764751494.590313,1.59
1764751494.5966148,1.44
1764751494.602816,1.54
1764751494.609368,1.55
1764751494.615289,1.48
1764751494.621514,1.57
1764751494.627799,1.5
1764751494.634252,1.52
1764751494.640377,1.56
1764751494.6465511,1.47
1764751494.652829,1.59
1764751494.6591308,1.54
1764751494.665306,1.45
1764751494.6716878,1.61
1764751494.6777248,1.55
1764751494.684085,1.54
1764751494.690457,1.7
1764751494.696636,1.94
1764751494.702809,2.71
1764751494.709142,3.1
1764751494.7153459,2.84
1764751494.7214239,2.18
1764751494.727697,1.15
1764751494.734185,1.24
1764751494.740395,1.66
1764751494.7465868,1.53
1764751494.752795,1.52
1764751494.759713,1.53
1764751494.765389,1.52
1764751494.771571,1.57
1764751494.777844,1.48
1764751494.7839391,1.51
1764751494.7905831,1.58
1764751494.796531,1.51
1764751494.802894,1.6
1764751494.809377,1.55
1764751494.815339,1.52
1764751494.82143,1.61
1764751494.8276181,1.54
1764751494.8339891,1.58
1764751494.840289,1.62
1764751494.846566,1.53
1764751494.852654,1.62
1764751494.858989,1.58
1764751494.865134,1.55
1764751494.871418,1.68
1764751494.8776178,1.6
1764751494.8839629,1.64
1764751494.890379,1.69
1764751494.89653,1.62
1764751494.902667,1.73
1764751494.909427,1.68
1764751494.915216,1.64
1764751494.921335,1.8
1764751494.927653,1.71
1764751494.9339461,1.7
1764751494.9402728,1.8
1764751494.9465249,1.72
1764751494.9528031,1.78
1764751494.959611,1.74
1764751494.965229,1.7
1764751494.97155,1.78
1764751494.9778419,1.67
1764751494.9839911,1.67
1764751494.990247,1.67
1764751494.996566,1.55
1764751495.0027049,1.64
1764751495.009152,1.56
1764751495.015233,1.47
1764751495.0214772,1.6
1764751495.027745,1.5
1764751495.034024,1.51
1764751495.0403898,1.57
1764751495.046426,1.48
1764751495.05268,1.54
1764751495.059327,1.52
1764751495.065386,1.49
1764751495.071608,1.59
1764751495.077696,1.48
1764751495.083897,1.51
1764751495.090272,1.57
1764751495.0964532,1.49
1764751495.102731,1.59
1764751495.110111,1.56
1764751495.115156,1.52
1764751495.121345,1.61
1764751495.127585,1.52
1764751495.1340108,1.55
1764751495.140251,1.6
1764751495.1464279,1.5
1764751495.1527522,1.6
1764751495.159631,1.56
1764751495.165223,1.51
1764751495.171482,1.61
1764751495.177597,1.5
1764751495.1839612,1.54
1764751495.19028,1.59
1764751495.196495,1.48
1764751495.202795,1.56
1764751495.2090461,1.54
1764751495.2152052,1.5
1764751495.221359,1.59
1764751495.227683,1.51
1764751495.233993,1.54
1764751495.240416,1.58
1764751495.246447,1.5
1764751495.2526479,1.56
1764751495.2590861,1.53
1764751495.265151,1.51
1764751495.271416,1.59
1764751495.2776058,1.5
1764751495.283901,1.54
1764751495.290445,1.57
1764751495.296397,1.5
1764751495.302606,1.67
1764751495.309231,1.66
1764751495.315109,1.62
1764751495.321407,1.76
1764751495.32761,1.69
1764751495.334002,1.65
1764751495.3402472,1.65
1764751495.346435,1.58
1764751495.352614,1.67
1764751495.359461,1.55
1764751495.365119,1.44
1764751495.371371,1.55
1764751495.377645,1.49
1764751495.383924,1.49
1764751495.390099,1.52
1764751495.39634,1.44
1764751495.4026399,1.54
1764751495.40903,1.5
1764751495.415168,1.45
1764751495.4214451,1.58
1764751495.4277172,1.49
1764751495.433965,1.52
1764751495.440174,1.56
1764751495.446474,1.44
1764751495.452714,1.53
1764751495.4589922,1.64
1764751495.465207,1.87
1764751495.4715142,2.59
1764751495.477616,3.03
1764751495.483855,2.95
1764751495.490231,2.31
1764751495.4964511,1.13
1764751495.5025349,1.16
1764751495.508995,1.61
1764751495.51515,1.57
1764751495.521426,1.52
1764751495.5276248,1.43
1764751495.533866,1.53
1764751495.54015,1.56
1764751495.5464718,1.42
1764751495.552613,1.53
1764751495.5591722,1.52
1764751495.5651588,1.46
1764751495.571446,1.59
1764751495.577657,1.52
1764751495.5839832,1.53
1764751495.59084,1.56
1764751495.5964,1.49
1764751495.602722,1.59
1764751495.6093209,1.56
1764751495.615175,1.52
1764751495.621391,1.61
1764751495.627778,1.53
1764751495.634023,1.55
1764751495.640182,1.65
1764751495.64639,1.59
1764751495.652556,1.64
1764751495.6591518,1.61
1764751495.691881,1.61
1764751495.6920378,1.74
1764751495.69219,1.66
1764751495.692393,1.68
1764751495.692566,1.73
1764751495.698721,1.64
1764751495.703815,1.77
1764751495.7150989,1.76
1764751495.715177,1.7
1764751495.722325,1.76
1764751495.728547,1.7
1764751495.73419,1.73
1764751495.740303,1.75
1764751495.746322,1.62
1764751495.752534,1.69
1764751495.7589738,1.65
1764751495.7651122,1.55
1764751495.771269,1.61
1764751495.777523,1.52
1764751495.783836,1.55
1764751495.790066,1.58
1764751495.796308,1.41
1764751495.8025,1.53
1764751495.808985,1.55
1764751495.815115,1.45
1764751495.8213031,1.51
1764751495.827649,1.46
1764751495.833836,1.54
1764751495.840147,1.56
1764751495.846384,1.42
1764751495.852562,1.55
1764751495.859137,1.55
1764751495.865144,1.5
1764751495.871368,1.59
1764751495.8776388,1.51
1764751495.8838458,1.54
1764751495.890107,1.57
1764751495.896352,1.5
1764751495.9026291,1.6
1764751495.908929,1.56
1764751495.9151208,1.52
1764751495.9214,1.61
1764751495.927715,1.51
1764751495.9338381,1.55
1764751495.940363,1.58
1764751495.946377,1.46
1764751495.9526248,1.6
1764751495.958977,1.59
1764751495.965107,1.49
1764751495.971324,1.55
1764751495.977657,1.49
1764751495.983805,1.53
1764751495.990318,1.59
1764751495.9962711,1.48
1764751496.002508,1.55
1764751496.008995,1.55
1764751496.01507,1.51
1764751496.0213199,1.56
1764751496.027562,1.49
1764751496.03376,1.55
1764751496.040106,1.58
1764751496.046313,1.44
1764751496.052512,1.55
1764751496.058826,1.57
1764751496.0650969,1.51
1764751496.071352,1.59
1764751496.0776289,1.55
1764751496.083758,1.62
1764751496.090205,1.72
1764751496.096319,1.61
1764751496.1025019,1.74
1764751496.108951,1.72
1764751496.115333,1.62
1764751496.121265,1.68
1764751496.127625,1.61
1764751496.133868,1.59
1764751496.1400902,1.53
1764751496.146328,1.43
1764751496.152595,1.54
1764751496.1590478,1.52
1764751496.165052,1.47
1764751496.171384,1.54
1764751496.1775649,1.45
1764751496.18383,1.5
1764751496.190002,1.55
1764751496.196257,1.47
1764751496.2024598,1.54
1764751496.209304,1.52
1764751496.215196,1.5
1764751496.221301,1.6
1764751496.2275531,1.48
1764751496.233699,1.53
1764751496.240077,1.73
1764751496.246303,1.99
1764751496.252481,2.81
1764751496.258775,3.13
1764751496.2649841,2.82
1764751496.2713091,1.89
1764751496.277616,0.94
1764751496.283788,1.33
1764751496.290056,1.77
1764751496.29626,1.53
1764751496.302579,1.46
1764751496.309228,1.51
1764751496.3150342,1.51
1764751496.321238,1.56
1764751496.3276238,1.45
1764751496.333727,1.52
1764751496.340391,1.58
1764751496.346215,1.46
1764751496.3523872,1.56
1764751496.3587751,1.52
1764751496.364974,1.5
1764751496.3712041,1.6
1764751496.377541,1.53
1764751496.3836942,1.56
1764751496.389934,1.62
1764751496.396252,1.53
1764751496.4024441,1.61
1764751496.408685,1.57
1764751496.414943,1.57
1764751496.421192,1.68
1764751496.427469,1.57
1764751496.433665,1.61
1764751496.440792,1.73
1764751496.446156,1.62
1764751496.452389,1.69
1764751496.458698,1.72
1764751496.464923,1.68
1764751496.4711528,1.77
1764751496.4774258,1.7
1764751496.4836962,1.74
1764751496.490595,1.78
1764751496.4962409,1.7
1764751496.502401,1.8
1764751496.508688,1.75
1764751496.5149162,1.68
1764751496.5211918,1.8
1764751496.527531,1.69
1764751496.533631,1.64
1764751496.541177,1.64
1764751496.546174,1.55
1764751496.552408,1.59
1764751496.558872,1.55
1764751496.565162,1.53
1764751496.5711691,1.59
1764751496.5775309,1.46
1764751496.583704,1.5
1764751496.591271,1.57
1764751496.5961971,1.43
1764751496.6024551,1.54
1764751496.6094751,1.52
1764751496.615018,1.44
1764751496.621196,1.59
1764751496.627449,1.52
1764751496.633597,1.52
1764751496.640052,1.58
1764751496.6463501,1.52
1764751496.652448,1.59
1764751496.658684,1.6
1764751496.664978,1.53
1764751496.671123,1.58
1764751496.6775308,1.53
1764751496.683617,1.59
1764751496.6901278,1.64
1764751496.696192,1.53
1764751496.702333,1.59
1764751496.70863,1.58
1764751496.71488,1.56
1764751496.7210932,1.66
1764751496.727371,1.54
1764751496.733663,1.55
1764751496.740302,1.6
1764751496.746117,1.52
1764751496.7525089,1.63
1764751496.7588322,1.58
1764751496.76494,1.5
1764751496.77121,1.62
1764751496.777475,1.55
1764751496.783655,1.58
1764751496.79005,1.59
1764751496.7961721,1.5
1764751496.802571,1.61
1764751496.808716,1.57
1764751496.81488,1.53
1764751496.8211079,1.61
1764751496.827429,1.54
1764751496.8336709,1.6
1764751496.840075,1.64
1764751496.8461351,1.52
1764751496.8524039,1.64
1764751496.858639,1.62
1764751496.864983,1.55
1764751496.8710778,1.65
1764751496.877432,1.57
1764751496.883683,1.6
1764751496.890387,1.72
1764751496.896254,1.69
1764751496.902412,1.78
1764751496.908826,1.76
1764751496.914892,1.74
1764751496.921164,1.82
1764751496.927474,1.7
1764751496.933652,1.67
1764751496.9399612,1.74
1764751496.946111,1.61
1764751496.952394,1.62
1764751496.958726,1.59
1764751496.964897,1.56
1764751496.971155,1.64
1764751496.97745,1.54
1764751496.983736,1.57
1764751496.989971,1.6
1764751496.996057,1.52
1764751497.002421,1.6
1764751497.00863,1.56
1764751497.014858,1.51
1764751497.021162,1.62
1764751497.03218,1.54
1764751497.080117,1.55
1764751497.080844,1.56
1764751497.080951,1.54
1764751497.081462,1.9
1764751497.081631,2.47
1764751497.081921,2.98
1764751497.082125,3.04
1764751497.0822499,2.38
1764751497.084818,1.26
1764751497.089962,1.12
1764751497.096614,1.51
1764751497.1023302,1.67
1764751497.1086369,1.48
1764751497.114892,1.42
1764751497.1210802,1.59
1764751497.1275141,1.46
1764751497.1338508,1.44
1764751497.1398442,1.54
1764751497.146067,1.49
1764751497.152382,1.53
1764751497.158765,1.47
1764751497.164811,1.49
1764751497.171097,1.61
1764751497.177428,1.48
1764751497.193254,1.5
1764751497.1940448,1.58
1764751497.1960452,1.52
1764751497.2023392,1.59
1764751497.208649,1.56
1764751497.214856,1.52
1764751497.2211251,1.65
1764751497.227426,1.55
1764751497.233651,1.6
1764751497.2397928,1.66
1764751497.2459772,1.58
1764751497.2523,1.71
1764751497.2586272,1.66
1764751497.264778,1.61
1764751497.271044,1.77
1764751497.277288,1.67
1764751497.283556,1.72
1764751497.2898078,1.8
1764751497.295995,1.69
1764751497.302242,1.75
1764751497.308575,1.75
1764751497.3147929,1.74
1764751497.321072,1.8
1764751497.3272982,1.67
1764751497.33358,1.75
1764751497.340009,1.78
1764751497.3459861,1.59
1764751497.3523571,1.65
1764751497.358538,1.63
1764751497.364765,1.58
1764751497.371108,1.67
1764751497.377219,1.51
1764751497.383592,1.52
1764751497.389937,1.56
1764751497.396013,1.5
1764751497.402326,1.6
1764751497.408673,1.53
1764751497.4148748,1.5
1764751497.421063,1.6
1764751497.427335,1.49
1764751497.4336178,1.56
1764751497.439924,1.61
1764751497.445968,1.5
1764751497.452289,1.61
1764751497.4586072,1.57
1764751497.464718,1.52
1764751497.471026,1.64
1764751497.477344,1.55
1764751497.483566,1.58
1764751497.489851,1.62
1764751497.495936,1.54
1764751497.5022562,1.66
1764751497.508529,1.57
1764751497.514783,1.53
1764751497.521014,1.67
1764751497.5272908,1.55
1764751497.5335581,1.55
1764751497.540056,1.59
1764751497.545978,1.54
1764751497.552361,1.64
1764751497.558592,1.57
1764751497.5648398,1.52
1764751497.571018,1.61
1764751497.5773802,1.57
1764751497.583563,1.6
1764751497.589917,1.59
1764751497.595999,1.53
1764751497.60223,1.61
1764751497.608518,1.56
1764751497.6147258,1.55
1764751497.621079,1.65
1764751497.6273012,1.55
1764751497.633502,1.57
1764751497.6399648,1.6
1764751497.6460092,1.58
1764751497.652211,1.74
1764751497.6585028,1.69
1764751497.6647549,1.68
1764751497.671028,1.81
1764751497.677323,1.71
1764751497.68348,1.69
1764751497.690122,1.71
1764751497.695959,1.6
1764751497.702461,1.6
1764751497.708519,1.51
1764751497.71474,1.5
1764751497.721011,1.61
1764751497.727252,1.46
1764751497.7335339,1.47
1764751497.7397919,1.56
1764751497.745975,1.49
1764751497.752239,1.56
1764751497.758755,1.51
1764751497.764728,1.5
1764751497.7710001,1.59
1764751497.777195,1.5
1764751497.783473,1.53
1764751497.7899652,1.56
1764751497.795968,1.48
1764751497.80242,1.66
1764751497.808458,1.83
1764751497.814712,2.36
1764751497.821078,3.11
1764751497.827372,2.98
1764751497.8335402,2.41
1764751497.83973,1.36
1764751497.84596,1.04
1764751497.852206,1.59
1764751497.858485,1.63
1764751497.864665,1.46
1764751497.871011,1.53
1764751497.8771899,1.47
1764751497.883589,1.52
1764751497.889765,1.55
1764751497.895947,1.46
1764751497.902269,1.57
1764751497.908885,1.48
1764751497.914741,1.45
1764751497.9211571,1.62
1764751497.9271328,1.52
1764751497.933422,1.52
1764751497.93971,1.59
1764751497.945916,1.52
1764751497.952236,1.59
1764751497.9586182,1.54
1764751497.96468,1.57
1764751497.970987,1.67
1764751497.977157,1.54
1764751497.983458,1.59
1764751497.989698,1.67
1764751497.9959302,1.58
1764751498.002183,1.69
1764751498.008407,1.66
1764751498.014741,1.62
1764751498.020951,1.74
1764751498.0271611,1.67
1764751498.0334442,1.73
1764751498.039708,1.76
1764751498.0460749,1.66
1764751498.052199,1.78
1764751498.058468,1.73
1764751498.064777,1.68
1764751498.071043,1.81
1764751498.07719,1.71
1764751498.083499,1.72
1764751498.089746,1.72
1764751498.095913,1.61
1764751498.102206,1.71
1764751498.108385,1.66
1764751498.114632,1.64
1764751498.1210501,1.62
1764751498.127239,1.48
1764751498.1334631,1.63
1764751498.139661,1.59
1764751498.145896,1.34
1764751498.152131,1.49
1764751498.158509,1.5
1764751498.1646452,1.44
1764751498.1708941,1.51
1764751498.177071,1.46
1764751498.183488,1.53
1764751498.189664,1.55
1764751498.195907,1.47
1764751498.202156,1.59
1764751498.208568,1.55
1764751498.214653,1.54
1764751498.220957,1.62
1764751498.227193,1.5
1764751498.233432,1.56
1764751498.239594,1.58
1764751498.245985,1.51
1764751498.252119,1.62
1764751498.258371,1.57
1764751498.2650251,1.54
1764751498.270904,1.66
1764751498.277091,1.55
1764751498.28338,1.58
1764751498.289661,1.65
1764751498.2959201,1.6
1764751498.302121,1.69
1764751498.308688,1.65
1764751498.31459,1.64
1764751498.3209002,1.74
1764751498.3272681,1.64
1764751498.333358,1.71
1764751498.339668,1.79
1764751498.3458822,1.67
1764751498.3520472,1.79
1764751498.3584461,1.81
1764751498.364605,1.76
1764751498.3710551,1.85
1764751498.377095,1.76
1764751498.38329,1.77
1764751498.3896341,1.82
1764751498.3957498,1.74
1764751498.402109,1.82
1764751498.408413,1.79
1764751498.414635,1.73
1764751498.4208279,1.81
1764751498.4270349,1.75
1764751498.433363,1.76
1764751498.439703,1.78
1764751498.445848,1.68
1764751498.45213,1.76
1764751498.4584131,1.76
1764751498.464571,1.77
1764751498.4709141,1.89
1764751498.4770792,1.79
1764751498.483449,1.8
1764751498.4896781,1.9
1764751498.495958,1.81
1764751498.5021079,1.79
1764751498.508357,1.7
1764751498.514574,1.68
1764751498.520895,1.74
1764751498.527164,1.55
1764751498.5334241,1.53
1764751498.539655,1.59
1764751498.54581,1.5
1764751498.552104,1.54
1764751498.558317,1.5
1764751498.5646029,1.49
1764751498.57087,1.57
1764751498.577075,1.45
1764751498.583359,1.49
1764751498.5898318,1.52
1764751498.595826,1.43
1764751498.602078,1.52
1764751498.6083488,1.48
1764751498.614625,1.43
1764751498.6208599,1.62
1764751498.62707,1.8
1764751498.63325,2.45
1764751498.639632,3.06
1764751498.645782,2.87
1764751498.652061,2.26
1764751498.658337,1.12
1764751498.6646159,1.03
1764751498.6708858,1.65
1764751498.677044,1.56
1764751498.683388,1.41
1764751498.689749,1.47
1764751498.695807,1.43
1764751498.702121,1.49
1764751498.7082849,1.44
1764751498.714585,1.42
1764751498.720809,1.53
1764751498.727026,1.43
1764751498.7333,1.48
1764751498.739618,1.54
1764751498.745752,1.46
1764751498.752171,1.53
1764751498.7583091,1.49
1764751498.764561,1.5
1764751498.770771,1.58
1764751498.7770581,1.51
1764751498.783328,1.56
1764751498.7895591,1.59
1764751498.7956932,1.5
1764751498.801973,1.62
1764751498.808222,1.61
1764751498.814514,1.56
1764751498.820833,1.65
1764751498.827028,1.59
1764751498.833301,1.61
1764751498.839712,1.69
1764751498.845741,1.64
1764751498.851959,1.76
1764751498.858198,1.7
1764751498.864519,1.65
1764751498.870815,1.77
1764751498.877009,1.66
1764751498.883251,1.69
1764751498.889607,1.79
1764751498.895753,1.7
1764751498.917488,1.74
1764751498.932396,1.69
1764751498.933408,1.6
1764751498.933543,1.65
1764751498.9336581,1.56
1764751498.9341261,1.56
1764751498.9671621,1.56
1764751498.975582,1.44
1764751498.9756649,1.53
1764751498.97574,1.49
1764751498.976754,1.42
1764751498.9774458,1.52
1764751498.977526,1.48
1764751498.9833071,1.51
1764751498.989603,1.49
1764751499.00151,1.39
1764751499.0054011,1.54
1764751499.010942,1.51
1764751499.017067,1.45
1764751499.020853,1.56
1764751499.027107,1.51
1764751499.033338,1.52
1764751499.0395331,1.53
1764751499.045676,1.48
1764751499.051946,1.58
1764751499.0582988,1.53
1764751499.0644648,1.49
1764751499.070733,1.59
1764751499.0769851,1.5
1764751499.083439,1.56
1764751499.0895832,1.6
1764751499.095752,1.47
1764751499.1019268,1.58
1764751499.108382,1.58
1764751499.114401,1.49
1764751499.120641,1.59
1764751499.127027,1.52
1764751499.133274,1.53
1764751499.139454,1.56
1764751499.145717,1.5
1764751499.151979,1.58
1764751499.158241,1.53
1764751499.164429,1.5
1764751499.170709,1.58
1764751499.177003,1.49
1764751499.183064,1.53
1764751499.189478,1.56
1764751499.195777,1.48
1764751499.201947,1.55
1764751499.208162,1.52
1764751499.214377,1.52
1764751499.220719,1.6
1764751499.227029,1.47
1764751499.233369,1.49
1764751499.239517,1.55
1764751499.246298,1.49
1764751499.2519958,1.61
1764751499.2583392,1.61
1764751499.2646,1.56
1764751499.270741,1.68
1764751499.276991,1.62
1764751499.2834308,1.63
1764751499.289634,1.62
1764751499.295827,1.49
1764751499.302557,1.61
1764751499.308324,1.52
1764751499.314548,1.39
1764751499.3207731,1.49
1764751499.32707,1.41
1764751499.336546,1.45
1764751499.3395321,1.47
1764751499.3458161,1.38
1764751499.352297,1.49
1764751499.358448,1.45
1764751499.364554,1.41
1764751499.371757,1.52
1764751499.377002,1.41
1764751499.383234,1.46
1764751499.3895612,1.53
1764751499.395801,1.43
1764751499.4021099,1.5
1764751499.408412,1.6
1764751499.4146612,1.82
1764751499.421503,2.51
1764751499.427038,2.96
1764751499.4333282,2.94
1764751499.4395142,2.33
1764751499.445704,1.12
1764751499.452021,1.17
1764751499.458431,1.56
1764751499.465077,1.54
1764751499.470811,1.53
1764751499.476982,1.41
1764751499.483167,1.5
1764751499.489681,1.54
1764751499.495659,1.42
1764751499.501951,1.55
1764751499.508257,1.52
1764751499.51453,1.46
1764751499.5208251,1.56
1764751499.5268931,1.5
1764751499.533115,1.53
1764751499.5394838,1.59
1764751499.545665,1.52
1764751499.551936,1.62
1764751499.558126,1.55
1764751499.5644522,1.54
1764751499.570695,1.64
1764751499.576902,1.53
1764751499.5830898,1.61
1764751499.589597,1.68
1764751499.5957382,1.58
1764751499.601929,1.65
1764751499.608094,1.65
1764751499.614433,1.66
1764751499.620654,1.74
1764751499.627011,1.64
1764751499.6332061,1.72
1764751499.6395059,1.79
1764751499.645744,1.69
1764751499.6519208,1.77
1764751499.658172,1.77
1764751499.664418,1.73
1764751499.670722,1.82
1764751499.676981,1.74
1764751499.68314,1.77
1764751499.689416,1.79
1764751499.6956742,1.67
1764751499.7019331,1.75
1764751499.70819,1.7
1764751499.714463,1.6
1764751499.720629,1.68
1764751499.72693,1.58
1764751499.7331579,1.58
1764751499.739646,1.61
1764751499.745596,1.51
1764751499.7519271,1.58
1764751499.7581298,1.56
1764751499.7644491,1.52
1764751499.770706,1.59
1764751499.776868,1.5
1764751499.783139,1.56
1764751499.789432,1.59
1764751499.795559,1.47
1764751499.8019688,1.6
1764751499.808167,1.58
1764751499.814424,1.5
1764751499.820678,1.6
1764751499.8269691,1.54
1764751499.833094,1.56
1764751499.839371,1.6
1764751499.845668,1.52
1764751499.851836,1.61
1764751499.858083,1.58
1764751499.8644211,1.52
1764751499.87077,1.61
1764751499.876975,1.53
1764751499.88307,1.57
1764751499.889438,1.59
1764751499.8957708,1.52
1764751499.901897,1.6
1764751499.908075,1.52
1764751499.9144142,1.48
1764751499.92066,1.61
1764751499.92679,1.53
1764751499.933058,1.54
1764751499.9393668,1.58
1764751499.945639,1.48
1764751499.951842,1.55
1764751499.958168,1.55
1764751499.9644449,1.54
1764751499.9708428,1.61
1764751499.9768288,1.5
1764751499.9830148,1.53
1764751499.989414,1.59
1764751499.99562,1.51
1764751500.0018759,1.59
1764751500.008106,1.56
1764751500.014364,1.51
1764751500.020677,1.61
1764751500.026858,1.54
1764751500.0332859,1.59
1764751500.0394728,1.69
1764751500.045653,1.63
1764751500.0517519,1.71
1764751500.0581272,1.72
1764751500.064325,1.68
1764751500.070715,1.73
1764751500.076778,1.58
1764751500.08303,1.61
1764751500.089555,1.67
1764751500.095561,1.5
1764751500.101867,1.5
1764751500.10817,1.5
1764751500.114357,1.46
1764751500.120718,1.49
1764751500.126891,1.43
1764751500.133072,1.49
1764751500.139369,1.48
1764751500.145653,1.39
1764751500.152991,1.49
1764751500.158087,1.44
1764751500.164396,1.39
1764751500.1726332,1.49
1764751500.176973,1.4
1764751500.183025,1.43
1764751500.1894138,1.47
1764751500.195616,1.51
1764751500.201914,1.96
1764751500.20811,2.59
1764751500.214252,2.95
1764751500.220685,2.83
1764751500.226814,1.77
1764751500.233022,0.87
1764751500.239516,1.21
1764751500.245572,1.53
1764751500.251832,1.52
1764751500.2580822,1.31
1764751500.264266,1.32
1764751500.270654,1.48
1764751500.2768488,1.33
1764751500.2832088,1.36
1764751500.289267,1.41
1764751500.2955892,1.31
1764751500.301814,1.46
1764751500.308059,1.43
1764751500.3143501,1.36
1764751500.320698,1.48
1764751500.326874,1.43
1764751500.3332748,1.45
1764751500.339424,1.47
1764751500.345715,1.41
1764751500.351855,1.55
1764751500.3581388,1.51
1764751500.364469,1.49
1764751500.3707032,1.59
1764751500.3767989,1.52
1764751500.3832161,1.59
1764751500.389635,1.61
1764751500.3957288,1.52
1764751500.401804,1.67
1764751500.4081228,1.66
1764751500.41436,1.62
1764751500.420644,1.72
1764751500.426995,1.67
1764751500.433227,1.71
1764751500.439455,1.75
1764751500.445716,1.68
1764751500.451838,1.76
1764751500.458179,1.72
1764751500.464586,1.71
1764751500.470695,1.81
1764751500.47689,1.69
1764751500.4832,1.69
1764751500.489432,1.72
1764751500.4957922,1.59
1764751500.501864,1.63
1764751500.508116,1.58
1764751500.514323,1.51
1764751500.520768,1.6
1764751500.5268621,1.5
1764751500.5330849,1.54
1764751500.539456,1.55
1764751500.5456378,1.44
1764751500.5518122,1.54
1764751500.5582871,1.55
1764751500.564356,1.51
1764751500.5708292,1.55
1764751500.576844,1.49
1764751500.583165,1.57
1764751500.5893629,1.6
1764751500.595767,1.47
1764751500.601825,1.61
1764751500.607999,1.6
1764751500.614411,1.55
1764751500.6207318,1.64
1764751500.626894,1.56
1764751500.633168,1.6
1764751500.6393569,1.66
1764751500.645756,1.56
1764751500.651865,1.65
1764751500.6580942,1.63
1764751500.664438,1.59
1764751500.671593,1.66
1764751500.677002,1.6
1764751500.683182,1.65
1764751500.689478,1.67
1764751500.695665,1.54
1764751500.701748,1.66
1764751500.7079911,1.68
1764751500.714265,1.61
1764751500.72142,1.68
1764751500.726759,1.62
1764751500.7331562,1.65
1764751500.73931,1.69
1764751500.745705,1.61
1764751500.7518039,1.7
1764751500.758176,1.65
1764751500.764301,1.61
1764751500.771016,1.71
1764751500.776834,1.58
1764751500.783156,1.64
1764751500.789313,1.72
1764751500.7955031,1.6
1764751500.801744,1.66
1764751500.807984,1.66
1764751500.814316,1.62
1764751500.820683,1.68
1764751500.826732,1.64
1764751500.8330328,1.74
1764751500.8392918,1.83
1764751500.84547,1.74
1764751500.8517802,1.85
1764751500.8579981,1.84
1764751500.864165,1.76
1764751500.870553,1.8
1764751500.876768,1.72
1764751500.882933,1.7
1764751500.889612,1.67
1764751500.8956952,1.56
1764751500.901817,1.65
1764751500.908021,1.61
1764751500.914218,1.53
1764751500.920663,1.63
1764751500.92673,1.56
1764751500.932974,1.57
1764751500.9395158,1.63
1764751500.94544,1.55
1764751500.9518158,1.6
1764751500.958016,1.59
1764751500.9827478,1.57
1764751501.034374,1.63
1764751501.061436,1.52
1764751501.06165,1.58
1764751501.061924,1.78
1764751501.06214,2.07
1764751501.06228,2.85
1764751501.062422,3.12
1764751501.062568,2.84
1764751501.062714,1.92
1764751501.0631208,0.98
1764751501.0634508,1.36
1764751501.0636008,1.77
1764751501.063922,1.56
1764751501.065402,1.51
1764751501.065568,1.51
1764751501.065844,1.51
1764751501.0704799,1.59
1764751501.083862,1.48
1764751501.084049,1.51
1764751501.089298,1.6
1764751501.0954292,1.51
1764751501.1017878,1.58
1764751501.108128,1.56
1764751501.114175,1.52
1764751501.1204531,1.61
1764751501.126681,1.52
1764751501.132937,1.57
1764751501.139193,1.65
1764751501.145445,1.54
1764751501.151677,1.63
1764751501.157922,1.6
1764751501.164165,1.56
1764751501.170408,1.67
1764751501.176686,1.62
1764751501.182924,1.66
1764751501.189226,1.68
1764751501.195345,1.59
1764751501.201618,1.73
1764751501.2078311,1.76
1764751501.214006,1.7
1764751501.2203531,1.77
1764751501.2266529,1.73
1764751501.2328472,1.75
1764751501.2392268,1.82
1764751501.245418,1.72
1764751501.2517,1.8
1764751501.258027,1.78
1764751501.2641642,1.74
1764751501.270438,1.85
1764751501.276663,1.73
1764751501.2828958,1.67
1764751501.289212,1.71
1764751501.295351,1.63
1764751501.301614,1.68
1764751501.30789,1.6
1764751501.314122,1.54
1764751501.320384,1.65
1764751501.3265972,1.59
1764751501.3328798,1.59
1764751501.33916,1.63
1764751501.345419,1.52
1764751501.351596,1.59
1764751501.357905,1.61
1764751501.36411,1.55
1764751501.370528,1.6
1764751501.376597,1.51
1764751501.382832,1.58
1764751501.389125,1.65
1764751501.3953972,1.55
1764751501.401697,1.64
1764751501.4077902,1.62
1764751501.414121,1.52
1764751501.420365,1.66
1764751501.426568,1.62
1764751501.432947,1.61
1764751501.439191,1.62
1764751501.4453828,1.55
1764751501.451663,1.67
1764751501.458373,1.62
1764751501.464152,1.51
1764751501.470408,1.65
1764751501.477056,1.61
1764751501.482909,1.58
1764751501.489462,1.63
1764751501.49533,1.56
1764751501.5016341,1.62
1764751501.5078988,1.58
1764751501.5141509,1.54
1764751501.520479,1.65
1764751501.526603,1.59
1764751501.5328379,1.57
1764751501.539211,1.6
1764751501.5453608,1.53
1764751501.551583,1.61
1764751501.557996,1.55
1764751501.564092,1.54
1764751501.57039,1.67
1764751501.5766132,1.64
1764751501.582824,1.65
1764751501.589289,1.75
1764751501.595377,1.78
1764751501.601608,1.82
1764751501.60798,1.71
1764751501.614224,1.6
1764751501.6204631,1.78
1764751501.6265888,1.73
1764751501.632843,1.54
1764751501.639023,1.49
1764751501.6453261,1.47
1764751501.651595,1.57
1764751501.657829,1.52
1764751501.664041,1.47
1764751501.670314,1.56
1764751501.6765492,1.53
1764751501.682862,1.57
1764751501.68907,1.61
1764751501.695266,1.51
1764751501.7015738,1.61
1764751501.707822,1.63
1764751501.714085,1.57
1764751501.7202728,1.63
1764751501.726551,1.6
1764751501.7328691,1.74
1764751501.739125,2.19
1764751501.745288,2.83
1764751501.751623,3.15
1764751501.757849,3.05
1764751501.764066,2.15
1764751501.770334,1.2
1764751501.77657,1.38
1764751501.782846,1.76
1764751501.789069,1.73
1764751501.795284,1.53
1764751501.801452,1.63
1764751501.807785,1.67
1764751501.814105,1.58
1764751501.820259,1.62
1764751501.826549,1.54
1764751501.832736,1.6
1764751501.839102,1.67
1764751501.845291,1.54
1764751501.851508,1.6
1764751501.857821,1.61
1764751501.864209,1.54
1764751501.87033,1.67
1764751501.8765209,1.61
1764751501.8828611,1.58
1764751501.88909,1.64
1764751501.895327,1.57
1764751501.901572,1.64
1764751501.907823,1.66
1764751501.914062,1.61
1764751501.920325,1.69
1764751501.9266639,1.61
1764751501.932823,1.63
1764751501.939012,1.74
1764751501.945288,1.65
1764751501.9516008,1.68
1764751501.957815,1.74
1764751501.964062,1.69
1764751501.970384,1.75
1764751501.976683,1.71
1764751501.982816,1.73
1764751501.9890418,1.76
1764751501.995258,1.65
1764751502.0015092,1.71
1764751502.00774,1.72
1764751502.01403,1.66
1764751502.02051,1.73
1764751502.0264819,1.62
1764751502.032867,1.58
1764751502.03902,1.62
1764751502.0453131,1.49
1764751502.051578,1.54
1764751502.057802,1.53
1764751502.064106,1.43
1764751502.070432,1.49
1764751502.0766551,1.49
1764751502.083262,1.47
1764751502.089099,1.49
1764751502.095328,1.44
1764751502.101564,1.52
1764751502.10779,1.5
1764751502.114064,1.43
1764751502.1203048,1.52
1764751502.1265512,1.48
1764751502.1326988,1.5
1764751502.139172,1.53
1764751502.145349,1.46
1764751502.151521,1.55
1764751502.15776,1.53
1764751502.164015,1.48
1764751502.170312,1.56
1764751502.176497,1.48
1764751502.182763,1.5
1764751502.188959,1.6
1764751502.195332,1.49
1764751502.201479,1.52
1764751502.207781,1.49
1764751502.2139552,1.46
1764751502.220274,1.56
1764751502.2265239,1.5
1764751502.232754,1.48
1764751502.238977,1.53
1764751502.2452302,1.45
1764751502.2515688,1.51
1764751502.257716,1.52
1764751502.2639391,1.46
1764751502.27036,1.52
1764751502.2764852,1.46
1764751502.2827709,1.5
1764751502.288963,1.53
1764751502.2951941,1.41
1764751502.3014688,1.49
1764751502.307751,1.53
1764751502.314021,1.43
1764751502.320441,1.52
1764751502.326442,1.51
1764751502.332753,1.48
1764751502.338989,1.49
1764751502.34523,1.48
1764751502.3514822,1.56
1764751502.357759,1.49
1764751502.363961,1.48
1764751502.370479,1.68
1764751502.376524,1.63
1764751502.382839,1.62
1764751502.38898,1.71
1764751502.395403,1.61
1764751502.401612,1.63
1764751502.407702,1.59
1764751502.414069,1.55
1764751502.4203148,1.57
1764751502.426516,1.42
1764751502.432711,1.45
1764751502.4389288,1.52
1764751502.445142,1.41
1764751502.451632,1.46
1764751502.457728,1.48
1764751502.464038,1.42
1764751502.470392,1.49
1764751502.476508,1.41
1764751502.4827268,1.45
1764751502.488975,1.53
1764751502.495232,1.45
1764751502.5014951,1.51
1764751502.521771,1.49
1764751502.557112,1.4
1764751502.557227,1.6
1764751502.557389,1.81
1764751502.5787148,2.38
1764751502.5789251,3.04
1764751502.579029,2.93
1764751502.579148,2.36
1764751502.5792482,1.2
1764751502.5793521,1.03
1764751502.579454,1.59
1764751502.579556,1.58
1764751502.598449,1.46
1764751502.598606,1.48
1764751502.598743,1.43
1764751502.601516,1.5
1764751502.609814,1.5
1764751502.614113,1.42
1764751502.6203341,1.51
1764751502.626584,1.45
1764751502.63295,1.47
1764751502.638988,1.54
1764751502.6452658,1.47
1764751502.652965,1.51
1764751502.6577122,1.49
1764751502.664027,1.47
1764751502.670729,1.55
1764751502.676459,1.5
1764751502.688582,1.5
1764751502.695311,1.54
1764751502.695468,1.49
1764751502.701461,1.59
1764751502.7076979,1.58
1764751502.7139862,1.52
1764751502.720236,1.63
1764751502.726465,1.57
1764751502.73305,1.6
1764751502.738985,1.7
1764751502.745229,1.62
1764751502.7514281,1.69
1764751502.757707,1.72
1764751502.763981,1.66
1764751502.770318,1.74
1764751502.776476,1.67
1764751502.782922,1.73
1764751502.789004,1.78
1764751502.795279,1.67
1764751502.802718,1.72
1764751502.8077362,1.72
1764751502.8140092,1.63
1764751502.820508,1.68
1764751502.826452,1.57
1764751502.832685,1.55
1764751502.838989,1.58
1764751502.845221,1.5
1764751502.851552,1.55
1764751502.857748,1.51
1764751502.863932,1.45
1764751502.8704069,1.57
1764751502.876457,1.52
1764751502.8828301,1.5
1764751502.889088,1.53
1764751502.895125,1.49
1764751502.901591,1.57
1764751502.907649,1.54
1764751502.914044,1.51
1764751502.921115,1.6
1764751502.926464,1.52
1764751502.932711,1.54
1764751502.9389791,1.63
1764751502.9452102,1.54
1764751502.9515011,1.57
1764751502.957661,1.59
1764751502.963915,1.55
1764751502.9702568,1.63
1764751502.9764538,1.54
1764751502.982773,1.55
1764751502.98895,1.61
1764751502.995156,1.53
1764751503.0016708,1.58
1764751503.007633,1.59
1764751503.013927,1.53
1764751503.020279,1.6
1764751503.026388,1.53
1764751503.0326269,1.55
1764751503.038924,1.61
1764751503.045171,1.52
1764751503.051347,1.57
1764751503.057606,1.54
1764751503.063781,1.52
1764751503.0701041,1.62
1764751503.076425,1.53
1764751503.0827022,1.54
1764751503.0888681,1.59
1764751503.095135,1.5
1764751503.101413,1.57
1764751503.107677,1.6
1764751503.113997,1.52
1764751503.120168,1.57
1764751503.126387,1.55
1764751503.132749,1.57
1764751503.138901,1.55
1764751503.1452081,1.47
1764751503.15148,1.61
1764751503.157737,1.61
1764751503.163788,1.52
1764751503.1702368,1.62
1764751503.1763499,1.63
1764751503.1826172,1.67
1764751503.1888902,1.72
1764751503.1951098,1.68
1764751503.201656,1.76
1764751503.2077749,1.72
1764751503.213845,1.6
1764751503.2207391,1.65
1764751503.226378,1.62
1764751503.232671,1.57
1764751503.2388659,1.55
1764751503.245086,1.48
1764751503.251468,1.55
1764751503.257547,1.53
1764751503.263917,1.45
1764751503.270211,1.56
1764751503.276442,1.53
1764751503.2826629,1.52
1764751503.2888691,1.56
1764751503.2950962,1.51
1764751503.30144,1.56
1764751503.3075671,1.58
1764751503.313985,1.52
1764751503.320207,1.58
1764751503.3263261,1.57
1764751503.332696,1.73
1764751503.3388522,2.24
1764751503.34528,2.88
1764751503.351372,3.12
1764751503.357599,2.8
1764751503.363919,1.63
1764751503.37028,1.09
1764751503.3764212,1.44
1764751503.382638,1.65
1764751503.389035,1.59
1764751503.3951979,1.45
1764751503.401691,1.55
1764751503.407584,1.55
1764751503.413853,1.5
1764751503.42017,1.57
1764751503.426511,1.53
1764751503.4326458,1.53
1764751503.439013,1.58
1764751503.4451041,1.53
1764751503.452118,1.58
1764751503.457707,1.58
1764751503.463914,1.54
1764751503.470231,1.63
1764751503.476427,1.55
1764751503.4826949,1.55
1764751503.488854,1.63
1764751503.495287,1.56
1764751503.501485,1.63
1764751503.507645,1.64
1764751503.513831,1.58
1764751503.520146,1.68
1764751503.526407,1.63
1764751503.532592,1.63
1764751503.538879,1.72
1764751503.544987,1.65
1764751503.5515032,1.72
1764751503.557634,1.74
1764751503.563811,1.68
1764751503.570173,1.77
1764751503.576407,1.72
1764751503.582623,1.75
1764751503.588832,1.81
1764751503.595008,1.72
1764751503.601296,1.77
1764751503.6075678,1.76
1764751503.61385,1.71
1764751503.620103,1.81
1764751503.6262789,1.7
1764751503.6326861,1.62
1764751503.638829,1.66
1764751503.6450748,1.59
1764751503.651428,1.62
1764751503.65748,1.57
1764751503.663924,1.51
1764751503.670096,1.6
1764751503.676349,1.53
1764751503.682546,1.51
1764751503.688813,1.57
1764751503.695092,1.52
1764751503.701359,1.58
1764751503.70749,1.57
1764751503.713761,1.49
1764751503.7200398,1.6
1764751503.726305,1.59
1764751503.7325408,1.56
1764751503.738813,1.62
1764751503.7450209,1.54
1764751503.751317,1.61
1764751503.757469,1.62
1764751503.7637918,1.56
1764751503.7703109,1.64
1764751503.776339,1.57
1764751503.782613,1.56
1764751503.788806,1.63
1764751503.795198,1.55
1764751503.801383,1.6
1764751503.807523,1.61
1764751503.813708,1.53
1764751503.820734,1.61
1764751503.826337,1.57
1764751503.832623,1.56
1764751503.838858,1.6
1764751503.8450902,1.52
1764751503.851507,1.59
1764751503.8575099,1.59
1764751503.8638551,1.52
1764751503.870212,1.62
1764751503.876361,1.55
1764751503.882685,1.53
1764751503.8887959,1.61
1764751503.895021,1.55
1764751503.9013388,1.56
1764751503.907486,1.57
1764751503.9137652,1.54
1764751503.9199622,1.63
1764751503.926193,1.55
1764751503.9324448,1.53
1764751503.93874,1.59
1764751503.9449348,1.52
1764751503.9512808,1.65
1764751503.9574301,1.72
1764751503.963705,1.63
1764751503.9700649,1.79
1764751503.9762418,1.76
1764751503.982558,1.68
1764751503.9887402,1.69
1764751503.9949498,1.62
1764751504.001369,1.67
1764751504.0074291,1.57
1764751504.013717,1.47
1764751504.0200121,1.58
1764751504.026309,1.53
1764751504.032702,1.49
1764751504.038893,1.54
1764751504.045016,1.48
1764751504.0513742,1.54
1764751504.057516,1.53
1764751504.063807,1.49
1764751504.070245,1.57
1764751504.076276,1.52
1764751504.082423,1.51
1764751504.088804,1.56
1764751504.095022,1.49
1764751504.1012878,1.56
1764751504.107531,1.7
1764751504.113685,1.99
1764751504.1199849,2.79
1764751504.139488,3.12
1764751504.167624,2.89
1764751504.183389,2.05
1764751504.188448,1.04
1764751504.193716,1.32
1764751504.196747,1.71
1764751504.1999412,1.56
1764751504.200073,1.52
1764751504.200352,1.5
1764751504.200468,1.53
1764751504.2005591,1.56
1764751504.200707,1.47
1764751504.207546,1.55
1764751504.2077298,1.55
1764751504.213847,1.5
1764751504.226099,1.59
1764751504.226273,1.54
1764751504.232594,1.52
1764751504.238761,1.58
1764751504.2451,1.53
1764751504.251714,1.58
1764751504.2574039,1.59
1764751504.263615,1.54
1764751504.270139,1.62
1764751504.276393,1.57
1764751504.282548,1.59
1764751504.2886488,1.65
1764751504.294991,1.58
1764751504.301259,1.67
1764751504.30748,1.67
1764751504.313684,1.61
1764751504.32002,1.75
1764751504.32619,1.68
1764751504.332458,1.67
1764751504.338836,1.76
1764751504.345012,1.69
1764751504.351382,1.74
1764751504.35743,1.75
1764751504.3638,1.7
1764751504.370038,1.79
1764751504.376257,1.73
1764751504.382498,1.7
1764751504.388673,1.75
1764751504.395021,1.66
1764751504.401218,1.67
1764751504.4074612,1.61
1764751504.413673,1.56
1764751504.419966,1.64
1764751504.426134,1.53
1764751504.4323788,1.49
1764751504.438624,1.57
1764751504.44493,1.48
1764751504.451273,1.53
1764751504.457505,1.53
1764751504.463628,1.43
1764751504.47001,1.54
1764751504.476214,1.52
1764751504.482692,1.49
1764751504.488659,1.55
1764751504.4949188,1.49
1764751504.501193,1.53
1764751504.507371,1.51
1764751504.513642,1.48
1764751504.519957,1.59
1764751504.526143,1.52
1764751504.532485,1.48
1764751504.538711,1.6
1764751504.54482,1.54
1764751504.551193,1.54
1764751504.557468,1.54
1764751504.563615,1.52
1764751504.569907,1.59
1764751504.5760891,1.52
1764751504.5823848,1.52
1764751504.588632,1.56
1764751504.594801,1.5
1764751504.6011488,1.55
1764751504.6074371,1.53
1764751504.613596,1.49
1764751504.6200829,1.58
1764751504.6261618,1.5
1764751504.632524,1.51
1764751504.638614,1.56
1764751504.644871,1.47
1764751504.651227,1.53
1764751504.65745,1.53
1764751504.6636999,1.49
1764751504.670057,1.55
1764751504.676106,1.48
1764751504.682372,1.51
1764751504.688566,1.59
1764751504.6948621,1.49
1764751504.701086,1.52
1764751504.707333,1.53
1764751504.713652,1.48
1764751504.719877,1.55
1764751504.726086,1.51
1764751504.732378,1.52
1764751504.738672,1.57
1764751504.744849,1.49
1764751504.751114,1.54
1764751504.7573519,1.56
1764751504.7636201,1.57
1764751504.769949,1.69
1764751504.776041,1.63
1764751504.78247,1.64
1764751504.788563,1.74
1764751504.7949371,1.63
1764751504.801093,1.62
1764751504.8074071,1.61
1764751504.813556,1.58
1764751504.819856,1.57
1764751504.826126,1.44
1764751504.8323998,1.47
1764751504.838576,1.56
1764751504.844788,1.45
1764751504.851068,1.46
1764751504.8573189,1.49
1764751504.863551,1.43
1764751504.8698869,1.52
1764751504.876079,1.47
1764751504.8823931,1.48
1764751504.888557,1.54
1764751504.894901,1.46
1764751504.901097,1.52
1764751504.90735,1.51
1764751504.9135628,1.45
1764751504.9198568,1.69
1764751504.926142,1.96
1764751504.932374,2.63
1764751504.9385731,3.11
1764751504.9447849,2.82
1764751504.951113,1.96
1764751504.957271,1.02
1764751504.9635682,1.21
1764751504.969849,1.69
1764751504.9761448,1.55
1764751504.982346,1.39
1764751504.9885461,1.5
1764751504.9947798,1.48
1764751505.0011342,1.52
1764751505.007301,1.49
1764751505.0134988,1.41
1764751505.020051,1.51
1764751505.026407,1.52
1764751505.032402,1.51
1764751505.038582,1.53
1764751505.04487,1.45
1764751505.0511281,1.55
1764751505.057528,1.57
1764751505.0636008,1.47
1764751505.069943,1.56
1764751505.076069,1.52
1764751505.082342,1.53
1764751505.0885801,1.63
1764751505.094848,1.55
1764751505.101176,1.59
1764751505.107368,1.6
1764751505.11351,1.55
1764751505.1198468,1.65
1764751505.126079,1.61
1764751505.1322691,1.64
1764751505.138533,1.72
1764751505.144783,1.6
1764751505.151114,1.7
1764751505.157286,1.77
1764751505.163771,1.69
1764751505.169984,1.72
1764751505.176098,1.69
1764751505.182312,1.7
1764751505.188565,1.77
1764751505.194826,1.69
1764751505.2011101,1.72
1764751505.2072902,1.71
1764751505.213517,1.62
1764751505.219868,1.67
1764751505.225974,1.6
1764751505.232345,1.54
1764751505.238554,1.59
1764751505.244721,1.5
1764751505.251012,1.54
1764751505.25729,1.56
1764751505.26353,1.45
1764751505.2699919,1.53
1764751505.275966,1.55
1764751505.282346,1.5
1764751505.288522,1.53
1764751505.294731,1.48
1764751505.301236,1.51
1764751505.307347,1.54
1764751505.313523,1.52
1764751505.31977,1.57
1764751505.326059,1.51
1764751505.3323479,1.51
1764751505.338523,1.6
1764751505.344822,1.52
1764751505.351122,1.54
1764751505.357285,1.55
1764751505.3635268,1.53
1764751505.3698502,1.6
1764751505.3760571,1.52
1764751505.382381,1.52
1764751505.3885398,1.61
1764751505.394758,1.53
1764751505.401097,1.54
1764751505.407213,1.55
1764751505.413514,1.51
1764751505.419743,1.6
1764751505.4259,1.55
1764751505.432251,1.53
1764751505.438459,1.57
1764751505.44476,1.47
1764751505.451013,1.55
1764751505.45727,1.6
1764751505.463499,1.51
1764751505.4697971,1.56
1764751505.476091,1.54
1764751505.482346,1.53
1764751505.488489,1.57
1764751505.494795,1.51
1764751505.5011342,1.56
1764751505.5073202,1.58
1764751505.513482,1.5
1764751505.519874,1.58
1764751505.52595,1.55
1764751505.532285,1.54
1764751505.538471,1.6
1764751505.544822,1.52
1764751505.550998,1.61
1764751505.5571342,1.68
1764751505.563533,1.63
1764751505.569897,1.69
1764751505.575961,1.71
1764751505.58224,1.73
1764751505.588501,1.74
1764751505.5947468,1.6
1764751505.6010492,1.65
1764751505.607291,1.65
1764751505.613525,1.51
1764751505.619829,1.57
1764751505.626016,1.52
1764751505.632239,1.5
1764751505.638468,1.56
1764751505.644788,1.49
1764751505.6510458,1.56
1764751505.657268,1.55
1764751505.6634738,1.48
1764751505.689412,1.57
1764751505.698681,1.53
1764751505.7027688,1.5
1764751505.7035131,1.59
1764751505.7052429,1.52
1764751505.70539,1.54
1764751505.711085,1.57
1764751505.713797,1.66
1764751505.720039,2.16
1764751505.7275252,2.83
1764751505.732841,3.09
1764751505.738709,2.86
1764751505.744981,1.79
1764751505.750928,1.07
1764751505.757226,1.42
1764751505.7634418,1.62
1764751505.7697039,1.58
1764751505.7766788,1.47
1764751505.7821472,1.49
1764751505.788414,1.56
1764751505.7949471,1.48
1764751505.800949,1.51
1764751505.807186,1.56
1764751505.8134642,1.5
1764751505.819819,1.56
1764751505.825927,1.5
1764751505.832138,1.51
1764751505.838443,1.61
1764751505.844767,1.55
1764751505.851032,1.56
1764751505.857271,1.57
1764751505.863494,1.54
1764751505.869673,1.64
1764751505.8760068,1.56
1764751505.882221,1.56
1764751505.888457,1.64
1764751505.8950698,1.55
1764751505.901249,1.62
1764751505.907147,1.68
1764751505.913415,1.61
1764751505.9197829,1.67
1764751505.925834,1.66
1764751505.93222,1.67
1764751505.938478,1.74
1764751505.944688,1.68
1764751505.951033,1.74
1764751505.957162,1.76
1764751505.963469,1.66
1764751505.9697092,1.74
1764751505.9758751,1.76
1764751505.982118,1.74
1764751505.9884338,1.76
1764751505.994717,1.67
1764751506.001083,1.71
1764751506.007473,1.69
1764751506.013481,1.58
1764751506.019825,1.64
1764751506.0259142,1.59
1764751506.032187,1.54
1764751506.038383,1.59
1764751506.044779,1.52
1764751506.051012,1.53
1764751506.05713,1.53
1764751506.063448,1.5
1764751506.069653,1.58
1764751506.075845,1.52
1764751506.082092,1.49
1764751506.088402,1.57
1764751506.09468,1.52
1764751506.101242,1.54
1764751506.1072042,1.58
1764751506.1134,1.52
1764751506.1196558,1.58
1764751506.1258519,1.53
1764751506.132247,1.54
1764751506.138394,1.6
1764751506.144664,1.52
1764751506.1510038,1.58
1764751506.157171,1.6
1764751506.1634371,1.52
1764751506.1696482,1.6
1764751506.1758158,1.56
1764751506.182302,1.54
1764751506.188384,1.61
1764751506.1946392,1.54
1764751506.2013571,1.58
1764751506.2072132,1.59
1764751506.213387,1.53
1764751506.219641,1.57
1764751506.225836,1.54
1764751506.23223,1.54
1764751506.2384,1.61
1764751506.244651,1.52
1764751506.250966,1.56
1764751506.2571478,1.56
1764751506.2633312,1.51
1764751506.269598,1.61
1764751506.275862,1.55
1764751506.2822,1.52
1764751506.2884638,1.61
1764751506.294546,1.53
1764751506.301041,1.55
1764751506.3071659,1.59
1764751506.313348,1.53
1764751506.3197272,1.57
1764751506.3257768,1.54
1764751506.3320918,1.55
1764751506.3384519,1.6
1764751506.344649,1.53
1764751506.3510258,1.58
1764751506.357182,1.6
1764751506.3633358,1.54
1764751506.369604,1.68
1764751506.37585,1.68
1764751506.38219,1.65
1764751506.3883991,1.72
1764751506.394638,1.73
1764751506.40142,1.76
1764751506.40707,1.71
1764751506.413381,1.58
1764751506.419661,1.65
1764751506.425824,1.62
1764751506.4321039,1.54
1764751506.438401,1.56
1764751506.4445922,1.47
1764751506.451044,1.52
1764751506.4570398,1.55
1764751506.4632819,1.46
1764751506.469662,1.52
1764751506.475893,1.51
1764751506.48226,1.5
1764751506.488425,1.53
1764751506.494548,1.47
1764751506.5009658,1.52
1764751506.507211,1.54
1764751506.5133598,1.47
1764751506.519563,1.53
1764751506.5258071,1.53
1764751506.532097,1.68
1764751506.538322,2.26
1764751506.544634,2.9
1764751506.550901,3.06
1764751506.5570712,2.65
1764751506.5633228,1.45
1764751506.569806,1.01
1764751506.5757482,1.47
1764751506.582148,1.65
1764751506.588365,1.54
1764751506.5946162,1.38
1764751506.600817,1.52
1764751506.607096,1.56
1764751506.6133199,1.44
1764751506.619828,1.51
1764751506.6257658,1.5
1764751506.632035,1.49
1764751506.6383,1.55
1764751506.644609,1.48
1764751506.651194,1.51
1764751506.6570141,1.52
1764751506.6632519,1.5
1764751506.669554,1.59
1764751506.675843,1.53
1764751506.6821032,1.52
1764751506.688309,1.6
1764751506.694606,1.52
1764751506.7012281,1.57
1764751506.707001,1.6
1764751506.713268,1.57
1764751506.719557,1.64
1764751506.725698,1.59
1764751506.7320378,1.62
1764751506.7382662,1.71
1764751506.7445052,1.61
1764751506.751034,1.68
1764751506.757151,1.75
1764751506.763308,1.67
1764751506.7697659,1.75
1764751506.775957,1.72
1764751506.78211,1.67
1764751506.788352,1.75
1764751506.7946398,1.74
1764751506.8009138,1.75
1764751506.80705,1.74
1764751506.813214,1.67
1764751506.819564,1.72
1764751506.8257742,1.63
1764751506.832172,1.6
1764751506.838345,1.63
1764751506.844531,1.52
1764751506.851427,1.54
1764751506.8570461,1.54
1764751506.86319,1.47
1764751506.869749,1.53
1764751506.8757231,1.49
1764751506.8820522,1.47
1764751506.8882828,1.55
1764751506.894527,1.45
1764751506.901061,1.5
1764751506.9070961,1.53
1764751506.9132612,1.46
1764751506.919531,1.51
1764751506.925835,1.48
1764751506.9321768,1.52
1764751506.93835,1.56
1764751506.944543,1.45
1764751506.951021,1.52
1764751506.957203,1.54
1764751506.9632692,1.48
1764751506.969553,1.55
1764751506.975819,1.51
1764751506.982193,1.5
1764751506.989045,1.54
1764751506.994602,1.48
1764751507.000923,1.52
1764751507.007103,1.5
1764751507.013379,1.48
1764751507.019551,1.6
1764751507.025825,1.5
1764751507.032335,1.43
1764751507.03828,1.54
1764751507.044479,1.49
1764751507.0511382,1.5
1764751507.057036,1.52
1764751507.0632489,1.47
1764751507.0695171,1.52
1764751507.0757601,1.45
1764751507.08209,1.49
1764751507.088253,1.56
1764751507.09453,1.44
1764751507.10121,1.5
1764751507.107024,1.52
1764751507.113259,1.4
1764751507.1195421,1.53
1764751507.125718,1.5
1764751507.132023,1.47
1764751507.138356,1.51
1764751507.144473,1.44
1764751507.15125,1.52
1764751507.157034,1.49
1764751507.163296,1.44
1764751507.169455,1.53
1764751507.1756968,1.48
1764751507.181973,1.55
1764751507.188249,1.66
1764751507.194479,1.56
1764751507.200757,1.65
1764751507.2616792,1.7
1764751507.324223,1.63
1764751507.3243709,1.66
1764751507.324521,1.54
1764751507.324651,1.56
1764751507.328207,1.59
1764751507.328386,1.41
1764751507.328523,1.47
1764751507.328655,1.49
1764751507.3287911,1.44
1764751507.3289332,1.52
1764751507.329071,1.45
1764751507.32921,1.48
1764751507.329346,1.54
1764751507.329481,1.45
1764751507.3296168,1.48
1764751507.329914,1.51
1764751507.3300831,1.51
1764751507.330215,1.58
1764751507.330345,1.48
1764751507.3319669,1.48
1764751507.338277,1.66
1764751507.344548,1.8
1764751507.350803,2.44
1764751507.356979,3.08
1764751507.363341,2.95
1764751507.369472,2.4
1764751507.3759449,1.24
1764751507.3820422,1.1
1764751507.3882601,1.65
1764751507.394476,1.59
1764751507.400748,1.5
1764751507.407006,1.5
1764751507.413228,1.48
1764751507.419631,1.6
1764751507.4257522,1.51
1764751507.431956,1.49
1764751507.438177,1.57
1764751507.444428,1.49
1764751507.450829,1.57
1764751507.456905,1.56
1764751507.463179,1.46
1764751507.4694772,1.6
1764751507.475737,1.57
1764751507.481944,1.57
1764751507.48823,1.63
1764751507.494484,1.53
1764751507.501245,1.58
1764751507.506977,1.64
1764751507.5131881,1.58
1764751507.519427,1.66
1764751507.525718,1.62
1764751507.531917,1.63
1764751507.538184,1.68
1764751507.544508,1.62
1764751507.550786,1.71
1764751507.556961,1.73
1764751507.563194,1.7
1764751507.569427,1.77
1764751507.575667,1.71
1764751507.5820138,1.75
1764751507.588182,1.8
1764751507.5944488,1.7
1764751507.601015,1.8
1764751507.606935,1.8
1764751507.613127,1.7
1764751507.619429,1.81
1764751507.62567,1.74
1764751507.631901,1.69
1764751507.6381938,1.72
1764751507.6443698,1.6
1764751507.650801,1.66
1764751507.656907,1.63
1764751507.66316,1.54
1764751507.669394,1.61
1764751507.675686,1.54
1764751507.681927,1.55
1764751507.688086,1.59
1764751507.6944268,1.48
1764751507.7007842,1.59
1764751507.706944,1.56
1764751507.713084,1.46
1764751507.719485,1.58
1764751507.7257159,1.53
1764751507.731842,1.54
1764751507.738196,1.62
1764751507.744443,1.51
1764751507.750865,1.55
1764751507.756951,1.61
1764751507.763197,1.55
1764751507.7693372,1.62
1764751507.7756429,1.52
1764751507.781861,1.55
1764751507.788105,1.66
1764751507.794476,1.53
1764751507.801263,1.57
1764751507.806856,1.61
1764751507.813112,1.56
1764751507.819417,1.58
1764751507.825614,1.55
1764751507.831887,1.59
1764751507.8381078,1.63
1764751507.844372,1.52
1764751507.850802,1.6
1764751507.856883,1.6
1764751507.863141,1.5
1764751507.8695428,1.59
1764751507.875616,1.56
1764751507.882005,1.56
1764751507.8881788,1.64
1764751507.894419,1.53
1764751507.901428,1.57
1764751507.907112,1.59
1764751507.913397,1.55
1764751507.919422,1.61
1764751507.92561,1.56
1764751507.9320261,1.59
1764751507.9382122,1.65
1764751507.9443998,1.59
1764751507.950815,1.69
1764751507.956991,1.72
1764751507.963132,1.72
1764751507.969354,1.82
1764751507.97574,1.71
1764751507.9820821,1.66
1764751507.988102,1.73
1764751507.994387,1.58
1764751508.000641,1.57
1764751508.006929,1.57
1764751508.013152,1.51
1764751508.019447,1.59
1764751508.025663,1.5
1764751508.0318022,1.52
1764751508.038096,1.62
1764751508.044373,1.51
1764751508.0507321,1.55
1764751508.056897,1.59
1764751508.063124,1.52
1764751508.0693388,1.59
1764751508.075553,1.56
1764751508.081839,1.56
1764751508.088193,1.6
1764751508.0943182,1.49
1764751508.100666,1.66
1764751508.106843,1.97
1764751508.113052,2.53
1764751508.119381,3.14
1764751508.1256058,3.02
1764751508.131885,2.32
1764751508.138134,1.27
1764751508.14433,1.11
1764751508.150641,1.64
1764751508.15688,1.7
1764751508.1631649,1.47
1764751508.1693351,1.58
1764751508.17564,1.57
1764751508.1818209,1.52
1764751508.188072,1.56
1764751508.194253,1.49
1764751508.200673,1.59
1764751508.2068532,1.6
1764751508.213112,1.5
1764751508.2193081,1.6
1764751508.22562,1.57
1764751508.2318668,1.56
1764751508.238144,1.63
1764751508.244239,1.55
1764751508.250714,1.59
1764751508.2567732,1.62
1764751508.263059,1.58
1764751508.2693062,1.67
1764751508.275606,1.62
1764751508.281844,1.59
1764751508.28802,1.69
1764751508.294233,1.63
1764751508.300742,1.67
1764751508.3068612,1.69
1764751508.3131268,1.64
1764751508.3192708,1.76
1764751508.325546,1.72
1764751508.331827,1.71
1764751508.338052,1.81
1764751508.344312,1.71
1764751508.35061,1.73
1764751508.3567061,1.81
1764751508.362988,1.75
1764751508.369384,1.8
1764751508.375545,1.73
1764751508.38178,1.72
1764751508.3880389,1.77
1764751508.394372,1.64
1764751508.400547,1.66
1764751508.406846,1.64
1764751508.413058,1.54
1764751508.419255,1.63
1764751508.425556,1.55
1764751508.43179,1.51
1764751508.438039,1.6
1764751508.444265,1.51
1764751508.450573,1.52
1764751508.456716,1.54
1764751508.463119,1.49
1764751508.4692638,1.58
1764751508.475608,1.53
1764751508.481945,1.49
1764751508.48805,1.58
1764751508.494271,1.53
1764751508.500562,1.54
1764751508.506722,1.57
1764751508.513105,1.52
1764751508.5193322,1.57
1764751508.5256572,1.57
1764751508.53187,1.57
1764751508.538132,1.6
1764751508.544259,1.5
1764751508.5506198,1.59
1764751508.5567622,1.62
1764751508.563068,1.52
1764751508.5693572,1.58
1764751508.575687,1.56
1764751508.581763,1.52
1764751508.588053,1.58
1764751508.594313,1.53
1764751508.600545,1.57
1764751508.60688,1.55
1764751508.613029,1.52
1764751508.619317,1.6
1764751508.62555,1.52
1764751508.6318998,1.52
1764751508.638005,1.58
1764751508.644209,1.49
1764751508.650601,1.55
1764751508.656947,1.55
1764751508.6630158,1.49
1764751508.669261,1.6
1764751508.6756108,1.54
1764751508.681856,1.51
1764751508.6879969,1.57
1764751508.694392,1.49
1764751508.7005508,1.56
1764751508.706625,1.58
1764751508.7130072,1.49
1764751508.7192829,1.57
1764751508.7255218,1.51
1764751508.731689,1.5
1764751508.7380638,1.63
1764751508.744289,1.52
1764751508.750606,1.57
1764751508.756672,1.66
1764751508.7630389,1.63
1764751508.769262,1.69
1764751508.775519,1.71
1764751508.7817101,1.71
1764751508.7879791,1.74
1764751508.794315,1.57
1764751508.80531,1.59
1764751508.810813,1.68
1764751508.823665,1.53
1764751508.8239832,1.52
1764751508.83856,1.5
1764751508.8404212,1.5
1764751508.8406882,1.55
1764751508.845919,1.48
1764751508.856162,1.53
1764751508.8598862,1.53
1764751508.865676,1.45
1764751508.871367,1.53
1764751508.881035,1.52
1764751508.884675,1.51
1764751508.887959,1.6
1764751508.894287,1.49
1764751508.900521,1.5
1764751508.9068859,1.59
1764751508.91308,1.66
1764751508.9195719,2.1
1764751508.92548,2.77
1764751508.931804,3.08
1764751508.9380229,2.9
1764751508.944273,1.82
1764751508.950548,1.01
1764751508.956695,1.43
1764751508.9629738,1.66
1764751508.969315,1.62
1764751508.975442,1.48
1764751508.9819121,1.49
1764751508.987927,1.6
1764751508.994281,1.48
1764751509.000444,1.52
1764751509.0066838,1.56
1764751509.0129569,1.51
1764751509.019252,1.58
1764751509.025475,1.53
1764751509.031687,1.52
1764751509.037875,1.61
1764751509.044163,1.52
1764751509.050447,1.56
1764751509.056639,1.59
1764751509.062901,1.53
1764751509.069165,1.61
1764751509.075413,1.56
1764751509.081731,1.52
1764751509.087861,1.6
1764751509.094181,1.52
1764751509.1004338,1.58
1764751509.1067991,1.61
1764751509.112979,1.54
1764751509.119225,1.64
1764751509.125458,1.59
1764751509.131644,1.57
1764751509.1380239,1.68
1764751509.144202,1.63
1764751509.150377,1.67
1764751509.156628,1.67
1764751509.163022,1.62
1764751509.1692212,1.71
1764751509.175426,1.63
1764751509.181718,1.62
1764751509.187925,1.71
1764751509.194162,1.62
1764751509.2004611,1.62
1764751509.206688,1.56
1764751509.212994,1.52
1764751509.219202,1.58
1764751509.225524,1.47
1764751509.231711,1.41
1764751509.237907,1.46
1764751509.2442381,1.38
1764751509.250432,1.45
1764751509.256704,1.44
1764751509.26677,1.34
1764751509.27007,1.45
1764751509.275439,1.4
1764751509.281785,1.39
1764751509.287978,1.47
1764751509.2949948,1.38
1764751509.3009548,1.43
1764751509.306686,1.44
1764751509.3129869,1.41
1764751509.3193011,1.5
1764751509.3256261,1.43
1764751509.331765,1.44
1764751509.337984,1.53
1764751509.344159,1.42
1764751509.350417,1.47
1764751509.357707,1.48
1764751509.362879,1.45
1764751509.369141,1.53
1764751509.375432,1.45
1764751509.381686,1.48
1764751509.387946,1.57
1764751509.3946,1.46
1764751509.40048,1.52
1764751509.406775,1.52
1764751509.412926,1.45
1764751509.419361,1.57
1764751509.425407,1.51
1764751509.431684,1.46
1764751509.4379299,1.58
1764751509.444463,1.5
1764751509.450604,1.55
1764751509.456654,1.59
1764751509.462823,1.5
1764751509.469156,1.56
1764751509.47536,1.55
1764751509.481777,1.56
1764751509.48785,1.62
1764751509.494153,1.52
1764751509.500478,1.56
1764751509.5066319,1.6
1764751509.512833,1.57
1764751509.5191438,1.65
1764751509.525414,1.56
1764751509.53192,1.56
1764751509.538029,1.73
1764751509.544246,1.69
1764751509.550477,1.74
1764751509.556675,1.79
1764751509.5628579,1.71
1764751509.569092,1.76
1764751509.575507,1.68
1764751509.5818722,1.67
1764751509.58782,1.76
1764751509.594039,1.57
1764751509.600767,1.56
1764751509.606646,1.6
1764751509.6128519,1.56
1764751509.6192179,1.63
1764751509.6253052,1.56
1764751509.631732,1.57
1764751509.637829,1.65
1764751509.644032,1.55
1764751509.6504052,1.6
1764751509.6567209,1.64
1764751509.6628218,1.58
1764751509.669099,1.67
1764751509.675309,1.63
1764751509.6817439,1.6
1764751509.6877928,1.71
1764751509.69402,1.78
1764751509.700417,2.3
1764751509.706657,3.03
1764751509.712842,3.1
1764751509.719351,2.83
1764751509.725423,1.72
1764751509.731693,1.11
1764751509.737855,1.59
1764751509.744221,1.67
1764751509.750473,1.6
1764751509.756592,1.59
1764751509.762784,1.52
1764751509.7690701,1.62
1764751509.7754471,1.58
1764751509.781601,1.54
1764751509.7877629,1.63
1764751509.7940009,1.53
1764751509.800339,1.57
1764751509.806477,1.58
1764751509.812771,1.52
1764751509.819077,1.63
1764751509.825311,1.57
1764751509.8318028,1.55
1764751509.8378298,1.59
1764751509.844057,1.5
1764751509.8503911,1.58
1764751509.856566,1.63
1764751509.8627589,1.55
1764751509.869173,1.61
1764751509.8752599,1.58
1764751509.881601,1.59
1764751509.887945,1.66
1764751509.894005,1.56
1764751509.900374,1.65
1764751509.906456,1.7
1764751509.912927,1.6
1764751509.9190688,1.71
1764751509.925348,1.67
1764751509.931594,1.67
1764751509.937873,1.77
1764751509.944055,1.67
1764751509.950655,1.71
1764751509.956536,1.72
1764751509.962802,1.66
1764751509.969101,1.74
1764751509.975301,1.67
1764751509.981645,1.63
1764751509.987811,1.67
1764751509.993951,1.52
1764751510.0003939,1.58
1764751510.00656,1.55
1764751510.012804,1.46
1764751510.019016,1.55
1764751510.025252,1.49
1764751510.0315452,1.46
1764751510.037747,1.51
1764751510.0440052,1.45
1764751510.050368,1.53
1764751510.0565271,1.52
1764751510.062818,1.42
1764751510.069396,1.52
1764751510.07526,1.5
1764751510.0816169,1.51
1764751510.087831,1.55
1764751510.094063,1.44
1764751510.1002822,1.55
1764751510.106522,1.57
1764751510.112853,1.49
1764751510.11904,1.59
1764751510.1253078,1.54
1764751510.131883,1.53
1764751510.137962,1.62
1764751510.1440709,1.52
1764751510.150329,1.55
1764751510.156586,1.59
1764751510.162849,1.52
1764751510.169339,1.62
1764751510.1753259,1.55
1764751510.18172,1.53
1764751510.188122,1.62
1764751510.194221,1.51
1764751510.2002728,1.56
1764751510.2064981,1.59
1764751510.2128708,1.51
1764751510.2191732,1.63
1764751510.225284,1.59
1764751510.231582,1.56
1764751510.2378209,1.65
1764751510.244027,1.56
1764751510.250228,1.63
1764751510.256514,1.69
1764751510.262711,1.61
1764751510.269036,1.67
1764751510.275244,1.68
1764751510.281505,1.69
1764751510.2877781,1.73
1764751510.2939389,1.63
1764751510.300202,1.72
1764751510.3065531,1.84
1764751510.312821,1.76
1764751510.318967,1.83
1764751510.325275,1.86
1764751510.3315709,1.8
1764751510.338237,1.82
1764751510.343959,1.73
1764751510.350237,1.78
1764751510.3565052,1.76
1764751510.362796,1.57
1764751510.36894,1.64
1764751510.375226,1.61
1764751510.381475,1.56
1764751510.3876622,1.64
1764751510.393971,1.54
1764751510.400213,1.58
1764751510.406558,1.62
1764751510.412833,1.52
1764751510.419072,1.57
1764751510.425163,1.55
1764751510.431618,1.53
1764751510.4377432,1.58
1764751510.444318,1.48
1764751510.450287,1.51
1764751510.456494,1.59
1764751510.4628322,1.71
1764751510.469082,2.32
1764751510.4752152,2.94
1764751510.4817002,2.95
1764751510.4877162,2.58
1764751510.493983,1.34
1764751510.500153,0.97
1764751510.506579,1.5
1764751510.512762,1.56
1764751510.518956,1.49
1764751510.5252302,1.39
1764751510.531683,1.41
1764751510.53768,1.49
1764751510.543992,1.38
1764751510.5502489,1.43
1764751510.5565162,1.47
1764751510.564037,1.39
1764751510.5689778,1.5
1764751510.575129,1.45
1764751510.5814888,1.43
1764751510.587726,1.5
1764751510.593973,1.43
1764751510.6002848,1.49
1764751510.606533,1.49
1764751510.6129851,1.43
1764751510.618958,1.55
1764751510.625101,1.51
1764751510.6315038,1.49
1764751510.6377401,1.6
1764751510.6497548,1.52
1764751510.6500711,1.56
1764751510.693676,1.63
1764751510.693952,1.58
1764751510.694421,1.66
1764751510.694589,1.61
1764751510.704809,1.64
1764751510.7049751,1.75
1764751510.720771,1.64
1764751510.7209349,1.74
1764751510.721109,1.8
1764751510.721277,1.7
1764751510.721451,1.77
1764751510.7274501,1.77
1764751510.732648,1.73
1764751510.737708,1.76
1764751510.744322,1.67
1764751510.7503731,1.69
1764751510.756487,1.7
1764751510.762839,1.59
1764751510.769067,1.63
1764751510.775148,1.55
1764751510.781395,1.52
1764751510.787675,1.6
1764751510.793996,1.51
1764751510.800182,1.51
1764751510.8065212,1.54
1764751510.821973,1.49
1764751510.8221161,1.57
1764751510.8251688,1.52
1764751510.832551,1.47
1764751510.837715,1.52
1764751510.8439429,1.52
1764751510.850276,1.57
1764751510.856435,1.57
1764751510.8627222,1.48
1764751510.868941,1.61
1764751510.875303,1.57
1764751510.881381,1.52
1764751510.8878279,1.63
1764751510.8939571,1.56
1764751510.900141,1.57
1764751510.9064372,1.61
1764751510.9125838,1.55
1764751510.918842,1.63
1764751510.925264,1.6
1764751510.9314141,1.57
1764751510.937641,1.65
1764751510.943892,1.54
1764751510.950204,1.57
1764751510.9564002,1.67
1764751510.962826,1.6
1764751510.9689221,1.62
1764751510.975119,1.6
1764751510.981486,1.58
1764751510.9877381,1.67
1764751510.993938,1.59
1764751511.0004852,1.64
1764751511.006432,1.66
1764751511.0126138,1.56
1764751511.019125,1.63
1764751511.025101,1.64
1764751511.031466,1.57
1764751511.037788,1.62
1764751511.043964,1.57
1764751511.0502112,1.59
1764751511.056416,1.59
1764751511.06267,1.52
1764751511.0689769,1.63
1764751511.075156,1.58
1764751511.0813792,1.52
1764751511.087683,1.69
1764751511.093895,1.68
1764751511.1001558,1.67
1764751511.106561,1.72
1764751511.112929,1.69
1764751511.118928,1.73
1764751511.125149,1.64
1764751511.1314719,1.59
1764751511.137642,1.68
1764751511.14396,1.53
1764751511.150187,1.49
1764751511.1564312,1.54
1764751511.162787,1.48
1764751511.168963,1.52
1764751511.175192,1.5
1764751511.1814919,1.49
1764751511.187663,1.55
1764751511.193831,1.44
1764751511.200044,1.5
1764751511.206317,1.58
1764751511.2126698,1.5
1764751511.218828,1.55
1764751511.225048,1.51
1764751511.231311,1.48
1764751511.237597,1.57
1764751511.243829,1.62
1764751511.249994,1.96
1764751511.2563698,2.66
1764751511.262918,3.05
1764751511.268804,2.96
1764751511.275054,2.09
1764751511.28146,1.08
1764751511.287694,1.32
1764751511.293801,1.6
1764751511.300093,1.58
1764751511.306257,1.53
1764751511.3126621,1.46
1764751511.318858,1.56
1764751511.325176,1.51
1764751511.3316228,1.47
1764751511.337688,1.57
1764751511.3439639,1.48
1764751511.350372,1.52
1764751511.3563678,1.6
1764751511.363028,1.5
1764751511.368902,1.55
1764751511.37503,1.54
1764751511.381566,1.52
1764751511.387696,1.59
1764751511.39385,1.55
1764751511.40023,1.61
1764751511.4062872,1.61
1764751511.412957,1.52
1764751511.4189172,1.63
1764751511.425187,1.63
1764751511.4314198,1.6
1764751511.437876,1.69
1764751511.4438488,1.62
1764751511.45014,1.69
1764751511.456307,1.71
1764751511.462705,1.62
1764751511.468841,1.76
1764751511.475082,1.75
1764751511.481282,1.67
1764751511.487655,1.75
1764751511.493821,1.7
1764751511.5002828,1.72
1764751511.506969,1.8
1764751511.512766,1.72
1764751511.5188081,1.78
1764751511.525095,1.73
1764751511.531305,1.62
1764751511.537632,1.7
1764751511.5437891,1.61
1764751511.550121,1.61
1764751511.556362,1.62
1764751511.562625,1.51
1764751511.568855,1.54
1764751511.575007,1.52
1764751511.5813131,1.5
1764751511.5875242,1.56
1764751511.5936651,1.46
1764751511.599957,1.52
1764751511.606267,1.53
1764751511.6125839,1.45
1764751511.618859,1.55
1764751511.625001,1.51
1764751511.6312551,1.47
1764751511.637555,1.55
1764751511.643696,1.48
1764751511.649994,1.52
1764751511.656259,1.57
1764751511.6625059,1.48
1764751511.668746,1.52
1764751511.675012,1.51
1764751511.6813838,1.51
1764751511.6875362,1.58
1764751511.693671,1.5
1764751511.6999419,1.52
1764751511.706219,1.57
1764751511.7126138,1.49
1764751511.718731,1.58
1764751511.725038,1.53
1764751511.731251,1.49
1764751511.737559,1.57
1764751511.743762,1.51
1764751511.749985,1.52
1764751511.756236,1.56
1764751511.762518,1.45
1764751511.768786,1.53
1764751511.7750568,1.53
1764751511.781266,1.52
1764751511.787497,1.57
1764751511.793702,1.46
1764751511.8000069,1.54
1764751511.806269,1.56
1764751511.812552,1.46
1764751511.818763,1.57
1764751511.8249521,1.55
1764751511.8312662,1.51
1764751511.837523,1.55
1764751511.8438,1.52
1764751511.850003,1.63
1764751511.856322,1.67
1764751511.862537,1.59
1764751511.868861,1.75
1764751511.875324,1.68
1764751511.881671,1.59
1764751511.887591,1.71
1764751511.893785,1.62
1764751511.9000251,1.6
1764751511.906194,1.55
1764751511.9124632,1.43
1764751511.918805,1.53
1764751511.9249148,1.52
1764751511.931408,1.45
1764751511.9376462,1.53
1764751511.943717,1.52
1764751511.950068,1.52
1764751511.9562628,1.49
1764751511.963538,1.46
1764751511.968694,1.57
1764751511.975053,1.52
1764751511.981354,1.5
1764751511.987506,1.57
1764751511.993885,1.48
1764751512.0000389,1.53
1764751512.0064058,1.67
1764751512.012942,1.93
1764751512.018691,2.72
1764751512.0250409,3.1
1764751512.031373,2.86
1764751512.037754,2.08
1764751512.043812,1.06
1764751512.0500128,1.25
1764751512.0563252,1.65
1764751512.064149,1.52
1764751512.068952,1.48
1764751512.075229,1.49
1764751512.081339,1.5
1764751512.087522,1.52
1764751512.093786,1.43
1764751512.100103,1.51
1764751512.106355,1.53
1764751512.113636,1.44
1764751512.118685,1.52
1764751512.124932,1.52
1764751512.131258,1.51
1764751512.137546,1.57
1764751512.143758,1.49
1764751512.149894,1.52
1764751512.156213,1.59
1764751512.163956,1.52
1764751512.168917,1.58
1764751512.175024,1.54
1764751512.181223,1.56
1764751512.187459,1.63
1764751512.193821,1.52
1764751512.20015,1.6
1764751512.2063491,1.65
1764751512.212498,1.56
1764751512.2186618,1.67
1764751512.2249548,1.68
1764751512.231196,1.63
1764751512.2374232,1.72
1764751512.2438002,1.66
1764751512.25002,1.69
1764751512.256321,1.74
1764751512.262611,1.67
1764751512.26911,1.74
1764751512.275017,1.69
1764751512.2812932,1.65
1764751512.287746,1.7
1764751512.2937012,1.62
1764751512.299975,1.65
1764751512.306231,1.64
1764751512.3126678,1.51
1764751512.318805,1.54
1764751512.325114,1.52
1764751512.33132,1.49
1764751512.3374422,1.55
1764751512.3438468,1.46
1764751512.350063,1.47
1764751512.356241,1.49
1764751512.362582,1.44
1764751512.368812,1.54
1764751512.375124,1.48
1764751512.381433,1.43
1764751512.387407,1.52
1764751512.393622,1.49
1764751512.399914,1.51
1764751512.4062452,1.52
1764751512.4129121,1.45
1764751512.418561,1.55
1764751512.424864,1.52
1764751512.4312818,1.49
1764751512.437493,1.58
1764751512.4436889,1.5
1764751512.4498932,1.52
1764751512.456165,1.54
1764751512.462768,1.5
1764751512.468586,1.59
1764751512.474868,1.53
1764751512.481188,1.5
1764751512.487471,1.57
1764751512.493612,1.48
1764751512.49992,1.51
1764751512.506099,1.53
1764751512.513145,1.45
1764751512.53422,1.57
1764751512.5343208,1.53
1764751512.5344052,1.48
1764751512.5567622,1.54
1764751512.556926,1.48
1764751512.561124,1.53
1764751512.622228,1.56
1764751512.630144,1.45
1764751512.630364,1.56
1764751512.630514,1.54
1764751512.630678,1.46
1764751512.6308181,1.54
1764751512.630962,1.5
1764751512.631125,1.53
1764751512.631283,1.55
1764751512.631433,1.46
1764751512.63159,1.54
1764751512.6317382,1.56
1764751512.631881,1.5
1764751512.63972,1.54
1764751512.6442811,1.51
1764751512.649993,1.56
1764751512.656158,1.63
1764751512.6636438,1.61
1764751512.66883,1.68
1764751512.674818,1.68
1764751512.681172,1.64
1764751512.6875598,1.71
1764751512.693676,1.62
1764751512.699986,1.62
1764751512.706261,1.62
1764751512.712376,1.51
1764751512.718592,1.55
1764751512.724865,1.5
1764751512.731143,1.46
1764751512.7373571,1.54
1764751512.743527,1.44
1764751512.749808,1.48
1764751512.756068,1.51
1764751512.7623959,1.44
1764751512.768491,1.53
1764751512.774806,1.5
1764751512.7810712,1.48
1764751512.7873092,1.57
1764751512.793569,1.5
1764751512.799813,1.48
1764751512.805981,1.54
1764751512.812324,1.65
1764751512.818589,2.15
1764751512.824859,2.82
1764751512.831062,3.04
1764751512.837421,2.83
1764751512.843617,1.72
1764751512.849778,0.98
1764751512.8560529,1.43
1764751512.862283,1.64
1764751512.868781,1.59
1764751512.8749492,1.44
1764751512.881099,1.42
1764751512.88738,1.56
1764751512.893715,1.48
1764751512.8999412,1.51
1764751512.9064288,1.53
1764751512.912842,1.46
1764751512.918666,1.55
1764751512.9250271,1.52
1764751512.931204,1.5
1764751512.937354,1.56
1764751512.94534,1.5
1764751512.949952,1.55
1764751512.956519,1.58
1764751512.962501,1.52
1764751512.969671,1.62
1764751513.0187972,1.58
1764751513.018961,1.52
1764751513.058399,1.65
1764751513.0586848,1.59
1764751513.059154,1.61
1764751513.0594938,1.67
1764751513.05965,1.58
1764751513.0604439,1.69
1764751513.060778,1.67
1764751513.060989,1.63
1764751513.0611598,1.71
1764751513.061346,1.66
1764751513.0617862,1.69
1764751513.0622468,1.72
1764751513.0627258,1.69
1764751513.068676,1.78
1764751513.074841,1.71
1764751513.081193,1.69
1764751513.087413,1.76
1764751513.093545,1.63
1764751513.09994,1.67
1764751513.106085,1.73
1764751513.112343,1.57
1764751513.118728,1.58
1764751513.124876,1.57
1764751513.131062,1.52
1764751513.137287,1.56
1764751513.143605,1.49
1764751513.149858,1.5
1764751513.1561532,1.54
1764751513.162366,1.46
1764751513.169019,1.53
1764751513.174887,1.5
1764751513.181451,1.47
1764751513.188406,1.57
1764751513.194338,1.49
1764751513.200275,1.51
1764751513.208075,1.53
1764751513.212449,1.5
1764751513.218855,1.63
1764751513.224946,1.58
1764751513.231099,1.48
1764751513.237607,1.59
1764751513.243775,1.56
1764751513.2497401,1.56
1764751513.256083,1.59
1764751513.26246,1.53
1764751513.268571,1.59
1764751513.274836,1.56
1764751513.2811499,1.56
1764751513.2873049,1.64
1764751513.293518,1.54
1764751513.2997582,1.55
1764751513.306079,1.61
1764751513.3135018,1.53
1764751513.318562,1.6
1764751513.3247502,1.55
1764751513.3313038,1.54
1764751513.337264,1.63
1764751513.343574,1.52
1764751513.349809,1.58
1764751513.35635,1.62
1764751513.3623512,1.5
1764751513.368563,1.58
1764751513.3750348,1.58
1764751513.381206,1.55
1764751513.387434,1.61
1764751513.393635,1.52
1764751513.3998752,1.57
1764751513.406029,1.6
1764751513.412315,1.52
1764751513.418708,1.62
1764751513.4248168,1.57
1764751513.431166,1.56
1764751513.4373262,1.73
1764751513.443567,1.67
1764751513.4498072,1.67
1764751513.456021,1.74
1764751513.462492,1.68
1764751513.468553,1.74
1764751513.474725,1.64
1764751513.481098,1.59
1764751513.487344,1.68
1764751513.493572,1.53
1764751513.4998028,1.53
1764751513.506117,1.57
1764751513.512527,1.45
1764751513.518568,1.56
1764751513.524844,1.57
1764751513.531025,1.49
1764751513.53717,1.56
1764751513.543693,1.52
1764751513.549824,1.54
1764751513.556004,1.57
1764751513.563509,1.51
1764751513.568494,1.58
1764751513.574743,1.53
1764751513.581249,1.52
1764751513.587318,1.73
1764751513.593898,1.83
1764751513.5996978,2.37
1764751513.60599,3.05
1764751513.612409,3.04
1764751513.618488,2.58
1764751513.6247559,1.4
1764751513.631108,1.09
1764751513.6374872,1.64
1764751513.643508,1.6
1764751513.64968,1.51
1764751513.655902,1.55
1764751513.662387,1.51
1764751513.668354,1.58
1764751513.674735,1.52
1764751513.6809258,1.52
1764751513.6871612,1.61
1764751513.693449,1.51
1764751513.699693,1.55
1764751513.70596,1.6
1764751513.712513,1.52
1764751513.7184708,1.63
1764751513.724627,1.6
1764751513.730935,1.55
1764751513.7371771,1.66
1764751513.743465,1.58
1764751513.749669,1.6
1764751513.755956,1.65
1764751513.762918,1.59
1764751513.768289,1.69
1764751513.774731,1.63
1764751513.780947,1.6
1764751513.787169,1.74
1764751513.7937028,1.69
1764751513.799724,1.7
1764751513.8059762,1.73
1764751513.8124118,1.7
1764751513.818455,1.82
1764751513.824766,1.81
1764751513.8308961,1.76
1764751513.83709,1.83
1764751513.8434482,1.76
1764751513.849716,1.82
1764751513.855933,1.86
1764751513.8623328,1.78
1764751513.8689752,1.86
1764751513.87467,1.8
1764751513.881124,1.71
1764751513.88732,1.79
1764751513.894366,1.71
1764751513.899783,1.7
1764751513.905921,1.67
1764751513.912246,1.57
1764751513.9184902,1.67
1764751513.924756,1.63
1764751513.931315,1.59
1764751513.93722,1.65
1764751513.943458,1.53
1764751513.949694,1.55
1764751513.955981,1.62
1764751513.9626172,1.53
1764751513.96841,1.61
1764751513.974703,1.57
1764751513.9811258,1.52
1764751513.987294,1.59
1764751513.993561,1.53
1764751513.9996421,1.57
1764751514.006101,1.58
1764751514.01465,1.49
1764751514.0187461,1.6
1764751514.024755,1.57
1764751514.031137,1.51
1764751514.037641,1.61
1764751514.043435,1.53
1764751514.049705,1.56
1764751514.0560188,1.56
1764751514.062312,1.49
1764751514.0693529,1.59
1764751514.074987,1.54
1764751514.0809312,1.48
1764751514.087174,1.55
1764751514.093481,1.5
1764751514.0996969,1.51
1764751514.106029,1.53
1764751514.1121862,1.49
1764751514.118412,1.56
1764751514.124747,1.49
1764751514.1309152,1.45
1764751514.1372511,1.56
1764751514.143477,1.49
1764751514.149704,1.51
1764751514.1559,1.54
1764751514.162415,1.45
1764751514.168318,1.55
1764751514.174601,1.5
1764751514.180833,1.47
1764751514.187099,1.57
1764751514.193415,1.48
1764751514.199635,1.51
1764751514.205804,1.54
1764751514.212309,1.46
1764751514.218265,1.57
1764751514.224562,1.63
1764751514.230865,1.64
1764751514.23705,1.68
1764751514.243377,1.65
1764751514.249613,1.7
1764751514.2558851,1.71
1764751514.2621372,1.57
1764751514.269105,1.65
1764751514.274629,1.62
1764751514.280904,1.51
1764751514.2871401,1.55
1764751514.293448,1.48
1764751514.300815,1.53
1764751514.30593,1.57
1764751514.3128161,1.47
1764751514.318391,1.55
1764751514.324647,1.54
1764751514.331497,1.51
1764751514.337893,1.6
1764751514.343471,1.52
1764751514.349807,1.57
1764751514.355923,1.6
1764751514.36225,1.47
1764751514.3683908,1.56
1764751514.3745909,1.59
1764751514.380966,1.67
1764751514.3871849,2.12
1764751514.393897,2.75
1764751514.399745,3.06
1764751514.405963,2.81
1764751514.4120882,1.7
1764751514.418417,0.96
1764751514.424744,1.32
1764751514.43133,1.65
1764751514.4371798,1.57
1764751514.4441228,1.34
1764751514.458601,1.43
1764751514.458888,1.5
1764751514.46367,1.4
1764751514.47487,1.49
1764751514.475044,1.44
1764751514.4817128,1.41
1764751514.487469,1.52
1764751514.497086,1.43
1764751514.499926,1.48
1764751514.505929,1.52
1764751514.5124302,1.45
1764751514.51839,1.55
1764751514.52492,1.49
1764751514.530956,1.45
1764751514.537117,1.57
1764751514.543415,1.5
1764751514.549626,1.54
1764751514.5558012,1.55
1764751514.562207,1.48
1764751514.568257,1.63
1764751514.574605,1.58
1764751514.580776,1.55
1764751514.5870888,1.7
1764751514.5934389,1.6
1764751514.599529,1.65
1764751514.605849,1.7
1764751514.612309,1.62
1764751514.618307,1.74
1764751514.624694,1.7
1764751514.630786,1.66
1764751514.6370199,1.75
1764751514.643472,1.68
1764751514.649664,1.74
1764751514.656034,1.75
1764751514.6623921,1.63
1764751514.668412,1.69
1764751514.674634,1.61
1764751514.680795,1.57
1764751514.6870022,1.63
1764751514.693423,1.51
1764751514.699609,1.54
1764751514.7060611,1.55
1764751514.712214,1.43
1764751514.7183821,1.5
1764751514.7252219,1.5
1764751514.730894,1.48
1764751514.736953,1.53
1764751514.7446551,1.46
1764751514.7497559,1.51
1764751514.755906,1.54
1764751514.762201,1.46
1764751514.7682931,1.55
1764751514.774571,1.53
1764751514.7809532,1.5
1764751514.787147,1.58
1764751514.793409,1.5
1764751514.799594,1.55
1764751514.8058822,1.57
1764751514.8120809,1.49
1764751514.818342,1.56
1764751514.824519,1.53
1764751514.830828,1.5
1764751514.8370261,1.59
1764751514.8433752,1.5
1764751514.849552,1.52
1764751514.855795,1.53
1764751514.8623428,1.44
1764751514.868308,1.53
1764751514.874839,1.49
1764751514.880762,1.41
1764751514.887179,1.51
1764751514.893567,1.43
1764751514.899528,1.42
1764751514.9057899,1.46
1764751514.912058,1.39
1764751514.918323,1.46
1764751514.924598,1.4
1764751514.930807,1.33
1764751514.937073,1.41
1764751514.943468,1.34
1764751514.949554,1.35
1764751514.9557838,1.38
1764751514.96239,1.28
1764751514.9682481,1.31
1764751514.974533,1.29
1764751514.980766,1.28
1764751514.987029,1.34
1764751514.9933288,1.26
1764751514.9994829,1.27
1764751515.005731,1.27
1764751515.0120761,1.17
1764751515.0181801,1.27
1764751515.0244951,1.26
1764751515.030804,1.21
1764751515.0370429,1.34
1764751515.043624,1.28
1764751515.04955,1.3
1764751515.055722,1.33
1764751515.0623832,1.24
1764751515.068392,1.26
1764751515.074496,1.18
1764751515.080755,1.15
1764751515.08693,1.14
1764751515.093486,1.0
1764751515.099603,1.05
1764751515.105792,1.09
1764751515.112426,0.96
1764751515.118304,1.02
1764751515.124483,1.0
1764751515.1307929,0.95
1764751515.1369479,1.0
1764751515.143709,0.93
1764751515.149512,0.94
1764751515.155773,0.95
1764751515.162231,0.89
1764751515.1682482,0.97
1764751515.1746292,0.88
1764751515.180686,0.88
1764751515.1869838,1.14
1764751515.193675,1.52
1764751515.199501,2.19
1764751515.205722,2.43
1764751515.212023,1.96
1764751515.218366,0.92
1764751515.224525,0.32
1764751515.230827,0.66
1764751515.2372348,0.95
1764751515.2434711,0.75
1764751515.249459,0.69
1764751515.255819,0.75
1764751515.26246,0.69
1764751515.2682428,0.72
1764751515.274699,0.66
1764751515.28091,0.64
1764751515.287006,0.74
1764751515.29391,0.65
1764751515.299544,0.65
1764751515.3057768,0.7
1764751515.312032,0.61
1764751515.3181849,0.67
1764751515.324505,0.65
1764751515.330685,0.57
1764751515.336991,0.64
1764751515.343338,0.58
1764751515.3494961,0.59
1764751515.355714,0.64
1764751515.3620439,0.55
1764751515.368186,0.6
1764751515.374541,0.56
1764751515.380657,0.53
1764751515.3870132,0.65
1764751515.3936682,0.57
1764751515.399691,0.54
1764751515.405741,0.64
1764751515.4125361,0.58
1764751515.4182148,0.62
1764751515.424521,0.59
1764751515.430845,0.62
1764751515.4369862,0.7
1764751515.443388,0.58
1764751515.449501,0.58
1764751515.4556842,0.67
1764751515.461997,0.61
1764751515.468229,0.62
1764751515.4745522,0.54
1764751515.4807382,0.48
1764751515.486953,0.56
1764751515.493411,0.45
1764751515.499487,0.39
1764751515.50575,0.43
1764751515.51216,0.36
1764751515.51825,0.4
1764751515.524377,0.35
1764751515.53069,0.32
1764751515.5369952,0.41
1764751515.54318,0.32
1764751515.549385,0.29
1764751515.55575,0.38
1764751515.5620391,0.33
1764751515.5682392,0.36
1764751515.574412,0.32
1764751515.580596,0.28
1764751515.5868402,0.4
1764751515.595468,0.33
1764751515.599353,0.32
1764751515.6056519,0.34
1764751515.611839,0.27
1764751515.618206,0.3
1764751515.624416,0.25
1764751515.6305778,0.22
1764751515.6369228,0.31
1764751515.643285,0.2
1764751515.649374,0.2
1764751515.6561742,0.24
1764751515.6642141,0.16
1764751515.66894,0.21
1764751515.6767302,0.16
1764751515.681061,0.1
1764751515.686962,0.18
1764751515.6954932,0.07
1764751515.69955,0.05
1764751515.705738,0.07
1764751515.712009,0.0
1764751515.718179,0.05
1764751515.7244742,0.06
1764751515.730786,0.01
1764751515.7369769,0.08
1764751515.744363,0.0
1764751515.74943,0.01
1764751515.755724,0.08
1764751515.7619998,0.06
1764751515.768188,0.13
1764751515.774399,0.09
1764751515.780724,0.08
1764751515.786929,0.25
1764751515.7934349,0.21
1764751515.7994502,0.2
1764751515.805668,0.28
1764751515.8122518,0.24
1764751515.818101,0.3
1764751515.824364,0.37
1764751515.830616,0.37
1764751515.8369348,0.48
1764751515.843241,0.48
1764751515.849482,0.52
1764751515.8556612,0.64
1764751515.8618932,0.62
1764751515.8681211,0.63
1764751515.874461,0.59
1764751515.880609,0.55
1764751515.886837,0.64
1764751515.893148,0.52
1764751515.899325,0.48
1764751515.9056551,0.5
1764751515.911965,0.44
1764751515.91808,0.53
1764751515.924414,0.53
1764751515.9305978,0.51
1764751515.93682,0.61
1764751515.9431942,0.55
1764751515.9493918,0.62
1764751515.955554,0.7
1764751515.96189,0.62
1764751515.968152,0.7
1764751515.974241,0.75
1764751515.9805171,0.72
1764751515.9868789,0.82
1764751515.9932108,0.88
1764751515.999479,1.22
1764751516.005607,1.95
1764751516.0119061,2.36
1764751516.018204,2.32
1764751516.0243998,1.64
1764751516.030594,0.53
1764751516.0368378,0.6
1764751516.0431528,1.09
1764751516.049313,1.16
1764751516.055669,1.02
1764751516.06196,0.96
1764751516.06833,1.11
1764751516.074338,1.09
1764751516.0807061,1.03
1764751516.087038,1.16
1764751516.0933278,1.14
1764751516.099404,1.15
1764751516.105623,1.2
1764751516.111928,1.14
1764751516.1181471,1.25
1764751516.124469,1.24
1764751516.130597,1.2
1764751516.1370208,1.29
1764751516.1435258,1.23
1764751516.1494231,1.26
1764751516.155641,1.3
1764751516.161807,1.27
1764751516.1681721,1.37
1764751516.174369,1.38
1764751516.180502,1.32
1764751516.186867,1.42
1764751516.1932008,1.45
1764751516.1992478,1.48
1764751516.205607,1.52
1764751516.2118368,1.5
1764751516.218312,1.61
1764751516.224334,1.61
1764751516.2305999,1.59
1764751516.236814,1.69
1764751516.243265,1.67
1764751516.249304,1.67
1764751516.25552,1.7
1764751516.261777,1.71
1764751516.268085,1.81
1764751516.274443,1.77
1764751516.280502,1.73
1764751516.286839,1.77
1764751516.29335,1.69
1764751516.299237,1.72
1764751516.305553,1.76
1764751516.3117802,1.69
1764751516.318094,1.77
1764751516.3243,1.74
1764751516.330574,1.7
1764751516.3369548,1.81
1764751516.343328,1.77
1764751516.349262,1.79
1764751516.355511,1.85
1764751516.361847,1.83
1764751516.368062,1.9
1764751516.374337,1.91
1764751516.3805592,1.88
1764751516.38692,1.96
1764751516.393179,1.91
1764751516.399262,1.95
1764751516.4056902,2.03
1764751516.411859,1.98
1764751516.41802,2.02
1764751516.4243898,2.01
1764751516.4305658,2.01
1764751516.436785,2.1
1764751516.4430778,2.01
1764751516.449308,2.06
1764751516.455502,2.12
1764751516.461787,2.04
1764751516.468013,2.11
1764751516.47438,2.11
1764751516.4804978,2.13
1764751516.486851,2.16
1764751516.493074,2.05
1764751516.499251,2.11
1764751516.5055401,2.16
1764751516.511751,2.07
1764751516.518034,2.14
1764751516.5242682,2.14
1764751516.5304892,2.05
1764751516.536818,2.11
1764751516.542964,2.05
1764751516.549312,2.05
1764751516.555547,2.09
1764751516.5618281,2.01
1764751516.568018,2.07
1764751516.574399,2.02
1764751516.5805361,1.97
1764751516.586825,2.06
1764751516.5934,1.97
1764751516.599294,1.96
1764751516.605495,2.02
1764751516.6117601,1.96
1764751516.618129,2.01
1764751516.624314,1.97
1764751516.6306171,1.93
1764751516.636875,2.05
1764751516.643111,2.01
1764751516.649272,2.07
1764751516.655413,2.16
1764751516.661806,2.1
1764751516.668004,2.15
1764751516.674274,2.07
1764751516.68044,1.98
1764751516.686754,2.11
1764751516.692994,2.02
1764751516.699115,1.95
1764751516.705476,1.97
1764751516.7117922,1.91
1764751516.718047,1.96
1764751516.7242272,1.93
1764751516.730529,1.93
1764751516.736759,2.01
1764751516.743022,1.94
1764751516.749158,1.96
1764751516.755428,2.0
1764751516.761728,1.94
1764751516.767988,1.98
1764751516.7742028,1.94
1764751516.780431,1.86
1764751516.786829,1.91
1764751516.793029,1.89
1764751516.799215,2.18
1764751516.80544,2.83
1764751516.811792,3.15
1764751516.817881,3.16
1764751516.824218,2.82
1764751516.863272,1.56
1764751516.8633249,1.42
1764751516.863371,1.88
1764751516.863606,2.03
1764751516.879668,1.9
1764751516.8948731,1.79
1764751516.903967,1.92
1764751516.908886,1.94
1764751516.90908,1.88
1764751516.909183,1.96
1764751516.909268,1.93
1764751516.9093509,1.95
1764751516.9096088,1.98
1764751516.9121761,1.94
1764751516.9179919,2.02
1764751516.93154,2.03
1764751516.93178,2.01
1764751516.93857,2.04
1764751516.945191,2.01
1764751516.949452,2.09
1764751516.955549,2.11
1764751516.961715,2.04
1764751516.967982,2.17
1764751516.9741492,2.17
1764751516.980435,2.13
1764751516.986677,2.24
1764751516.993095,2.17
1764751516.999203,2.23
1764751517.005497,2.3
1764751517.011675,2.25
1764751517.017864,2.32
1764751517.0242,2.31
1764751517.030486,2.34
1764751517.036695,2.41
1764751517.043093,2.34
1764751517.049212,2.37
1764751517.055618,2.42
1764751517.06211,2.36
1764751517.0679529,2.42
1764751517.0742102,2.37
1764751517.080457,2.33
1764751517.086646,2.39
1764751517.0932019,2.3
1764751517.099172,2.29
1764751517.105485,2.29
1764751517.111688,2.19
1764751517.117934,2.25
1764751517.124355,2.23
1764751517.130472,2.17
1764751517.136692,2.24
1764751517.1430259,2.15
1764751517.149129,2.19
1764751517.155734,2.21
1764751517.161875,2.15
1764751517.167972,2.23
1764751517.174102,2.18
1764751517.1805089,2.16
1764751517.1867032,2.25
1764751517.193047,2.17
1764751517.1992588,2.16
1764751517.205455,2.23
1764751517.211655,2.2
1764751517.217887,2.24
1764751517.224162,2.2
1764751517.2305129,2.19
1764751517.23665,2.28
1764751517.243281,2.2
1764751517.249346,2.22
1764751517.255598,2.23
1764751517.261787,2.18
1764751517.2680151,2.27
1764751517.274155,2.22
1764751517.280438,2.17
1764751517.286675,2.24
1764751517.293011,2.18
1764751517.299105,2.18
1764751517.3054662,2.21
1764751517.311819,2.17
1764751517.317844,2.22
1764751517.32416,2.12
1764751517.3304489,2.15
1764751517.3366752,2.27
1764751517.342989,2.15
1764751517.349101,2.12
1764751517.355535,2.17
1764751517.361652,2.12
1764751517.3680398,2.15
1764751517.374123,2.12
1764751517.380398,2.08
1764751517.3866172,2.16
1764751517.392983,2.13
1764751517.399165,2.19
1764751517.4055738,2.25
1764751517.4117131,2.18
1764751517.417844,2.29
1764751517.4243279,2.22
1764751517.430593,2.18
1764751517.4369888,2.21
1764751517.442951,2.13
1764751517.4492118,2.1
1764751517.4555361,2.07
1764751517.461576,1.97
1764751517.467797,2.04
1764751517.474129,2.01
1764751517.480611,1.94
1764751517.4865909,2.02
1764751517.493313,1.96
1764751517.49922,1.95
1764751517.505383,1.98
1764751517.5119948,1.91
1764751517.5178392,1.94
1764751517.524041,1.96
1764751517.530337,1.93
1764751517.536656,1.96
1764751517.543037,1.88
1764751517.549231,1.98
1764751517.555341,2.2
1764751517.561701,2.64
1764751517.567883,3.16
1764751517.574068,3.16
1764751517.5803452,3.14
1764751517.586541,2.12
1764751517.59298,1.17
1764751517.599085,1.77
1764751517.605522,2.18
1764751517.611609,1.84
1764751517.617986,1.74
1764751517.6241448,1.84
1764751517.630479,1.85
1764751517.6366,1.84
1764751517.6429582,1.75
1764751517.649323,1.82
1764751517.655465,1.82
1764751517.6617138,1.73
1764751517.667876,1.79
1764751517.6741078,1.75
1764751517.680269,1.72
1764751517.686574,1.78
1764751517.692894,1.7
1764751517.699218,1.74
1764751517.705339,1.73
1764751517.71157,1.64
1764751517.717819,1.72
1764751517.7243211,1.71
1764751517.730332,1.65
1764751517.736554,1.7
1764751517.7429912,1.63
1764751517.7490518,1.68
1764751517.755286,1.71
1764751517.7615,1.62
1764751517.7679172,1.68
1764751517.774081,1.66
1764751517.7802932,1.66
1764751517.786556,1.7
1764751517.7931142,1.59
1764751517.799008,1.64
1764751517.8052852,1.69
1764751517.811512,1.58
1764751517.817856,1.64
1764751517.824065,1.61
1764751517.830313,1.53
1764751517.8365061,1.57
1764751517.842924,1.47
1764751517.849118,1.4
1764751517.855309,1.4
1764751517.861514,1.33
1764751517.8679948,1.31
1764751517.874311,1.21
1764751517.880382,1.17
1764751517.886643,1.24
1764751517.893099,1.16
1764751517.899138,1.17
1764751517.9052339,1.18
1764751517.9119291,1.09
1764751517.9177432,1.15
1764751517.92415,1.15
1764751517.9303098,1.11
1764751517.936507,1.17
1764751517.943997,1.09
1764751517.949086,1.12
1764751517.955402,1.16
1764751517.9617531,1.1
1764751517.967912,1.16
1764751517.974082,1.1
1764751517.980424,1.06
1764751517.98656,1.19
1764751517.9928918,1.1
1764751517.999069,1.07
1764751518.005292,1.14
1764751518.0115159,1.1
1764751518.017719,1.13
1764751518.024035,1.09
1764751518.030216,1.09
1764751518.0364811,1.14
1764751518.04302,1.02
1764751518.048969,1.08
1764751518.055289,1.14
1764751518.0615182,1.03
1764751518.067708,1.09
1764751518.07412,1.09
1764751518.0803,1.04
1764751518.086587,1.12
1764751518.0928729,1.06
1764751518.0989661,1.09
1764751518.105265,1.09
1764751518.111525,1.04
1764751518.117742,1.13
1764751518.123989,1.11
1764751518.1302779,1.05
1764751518.136554,1.17
1764751518.142797,1.13
1764751518.149004,1.09
1764751518.1552489,1.14
1764751518.161464,1.2
1764751518.1677709,1.32
1764751518.1740758,1.27
1764751518.180277,1.26
1764751518.186597,1.4
1764751518.192914,1.31
1764751518.1990159,1.29
1764751518.205207,1.3
1764751518.211492,1.23
1764751518.217777,1.27
1764751518.224019,1.17
1764751518.2303438,1.13
1764751518.2366521,1.23
1764751518.242917,1.2
1764751518.24904,1.23
1764751518.255262,1.27
1764751518.2615092,1.21
1764751518.2677171,1.3
1764751518.274404,1.29
1764751518.280302,1.27
1764751518.286496,1.38
1764751518.292971,1.34
1764751518.299157,1.39
1764751518.305304,1.38
1764751518.3115451,1.31
1764751518.317824,1.53
1764751518.335516,1.87
1764751518.3356931,2.49
1764751518.384234,2.99
1764751518.407638,2.73
1764751518.407789,1.86
1764751518.407924,0.98
1764751518.412173,1.13
1764751518.429912,1.61
1764751518.430399,1.48
1764751518.430562,1.3
1764751518.430803,1.41
1764751518.430968,1.4
1764751518.431137,1.4
1764751518.432021,1.43
1764751518.4321978,1.38
1764751518.4332569,1.47
1764751518.433472,1.43
1764751518.4335842,1.4
1764751518.436436,1.51
1764751518.4427001,1.46
1764751518.467673,1.47
1764751518.467838,1.5
1764751518.467991,1.47
1764751518.468118,1.53
1764751518.477487,1.53
1764751518.480184,1.51
1764751518.486505,1.55
1764751518.492744,1.52
1764751518.4989061,1.58
1764751518.5052228,1.55
1764751518.512031,1.52
1764751518.517704,1.63
1764751518.5240462,1.62
1764751518.53018,1.57
1764751518.536433,1.68
1764751518.542628,1.67
1764751518.548913,1.67
1764751518.555179,1.71
1764751518.5614452,1.7
1764751518.567679,1.78
1764751518.573951,1.74
1764751518.5801432,1.71
1764751518.5863302,1.82
1764751518.592679,1.74
1764751518.598855,1.72
1764751518.605134,1.76
1764751518.611437,1.68
1764751518.61775,1.73
1764751518.623955,1.69
1764751518.6300852,1.64
1764751518.636446,1.69
1764751518.6427689,1.63
1764751518.6488519,1.64
1764751518.655082,1.66
1764751518.661441,1.57
1764751518.667684,1.64
1764751518.673938,1.63
1764751518.680108,1.57
1764751518.6863549,1.65
1764751518.692693,1.59
1764751518.698806,1.64
1764751518.705132,1.69
1764751518.7114072,1.62
1764751518.717626,1.67
1764751518.72403,1.67
1764751518.730208,1.69
1764751518.7363782,1.74
1764751518.742696,1.67
1764751518.74887,1.69
1764751518.755143,1.75
1764751518.7614698,1.68
1764751518.767644,1.74
1764751518.773969,1.72
1764751518.780159,1.67
1764751518.786417,1.74
1764751518.7927349,1.71
1764751518.7988648,1.72
1764751518.8051782,1.74
1764751518.8114612,1.69
1764751518.8176389,1.76
1764751518.82384,1.72
1764751518.830055,1.7
1764751518.8363059,1.76
1764751518.8426619,1.69
1764751518.848902,1.72
1764751518.855092,1.74
1764751518.861453,1.7
1764751518.86768,1.77
1764751518.873971,1.75
1764751518.880212,1.74
1764751518.886466,1.88
1764751518.8927722,1.83
1764751518.898855,1.89
1764751518.9051142,2.04
1764751518.911484,1.94
1764751518.917683,1.86
1764751518.923876,1.81
1764751518.930376,1.88
1764751518.936466,1.93
1764751518.942781,1.72
1764751518.9488509,1.7
1764751518.9550982,1.75
1764751518.961442,1.69
1764751518.967672,1.77
1764751518.9740748,1.77
1764751518.980159,1.71
1764751518.98641,1.76
1764751518.992667,1.71
1764751518.998844,1.8
1764751519.005152,1.82
1764751519.011489,1.71
1764751519.017737,1.81
1764751519.0238972,1.81
1764751519.0300999,1.76
1764751519.036362,1.82
1764751519.042557,1.85
1764751519.048852,2.17
1764751519.05519,2.86
1764751519.061385,3.16
1764751519.067704,3.16
1764751519.0738099,2.82
1764751519.0801122,1.44
1764751519.086377,1.36
1764751519.0927758,1.91
1764751519.098801,1.98
1764751519.105052,1.79
1764751519.111358,1.7
1764751519.11768,1.84
1764751519.123861,1.86
1764751519.1301382,1.79
1764751519.1364899,1.88
1764751519.142642,1.82
1764751519.1489348,1.84
1764751519.155173,1.87
1764751519.1614342,1.82
1764751519.168362,1.89
1764751519.1763,1.85
1764751519.180114,1.85
1764751519.186424,1.93
1764751519.192805,1.87
1764751519.198858,1.91
1764751519.205201,1.94
1764751519.211775,1.88
1764751519.217559,1.96
1764751519.224708,1.95
1764751519.230262,1.93
1764751519.2365172,2.01
1764751519.243613,1.96
1764751519.254386,1.98
1764751519.261803,2.06
1764751519.2620401,2.0
1764751519.267777,2.06
1764751519.273932,2.06
1764751519.282322,2.05
1764751519.28646,2.11
1764751519.294133,2.05
1764751519.298966,2.09
1764751519.30512,2.13
1764751519.311934,2.03
1764751519.317622,2.08
1764751519.324029,2.07
1764751519.3314822,2.0
1764751519.336458,2.02
1764751519.343317,1.94
1764751519.348873,1.94
1764751519.3618,1.93
1764751519.363725,1.87
1764751519.3676102,1.96
1764751519.373951,1.88
1764751519.3801432,1.82
1764751519.3866398,1.9
1764751519.392805,1.85
1764751519.400235,1.9
1764751519.405094,1.9
1764751519.412006,1.83
1764751519.417656,1.94
1764751519.425063,1.91
1764751519.430273,1.87
1764751519.436357,1.96
1764751519.443737,1.92
1764751519.448909,1.96
1764751519.45508,1.96
1764751519.4617012,1.9
1764751519.467575,1.98
1764751519.4742668,1.94
1764751519.4804611,1.92
1764751519.4873831,2.0
1764751519.493672,1.94
1764751519.498841,1.97
1764751519.50519,1.99
1764751519.5112991,1.94
1764751519.518029,1.99
1764751519.525536,1.94
1764751519.5301409,1.96
1764751519.538614,2.01
1764751519.548148,1.95
1764751519.551332,2.0
1764751519.555201,2.01
1764751519.5615418,1.87
1764751519.567682,1.93
1764751519.5738082,1.93
1764751519.580126,1.97
1764751519.586862,2.07
1764751519.5925708,1.96
1764751519.598851,1.99
1764751519.6049988,1.99
1764751519.6114712,1.85
1764751519.617631,1.9
1764751519.623901,1.93
1764751519.630157,1.88
1764751519.636482,1.96
1764751519.642922,1.96
1764751519.648803,2.03
1764751519.654985,1.99
1764751519.661261,1.98
1764751519.667546,2.03
1764751519.674269,1.74
1764751519.68006,1.73
1764751519.6862998,1.86
1764751519.692794,1.68
1764751519.6988502,1.7
1764751519.705002,1.6
1764751519.71122,1.56
1764751519.717612,1.69
1764751519.723857,1.48
1764751519.7299998,1.55
1764751519.736254,1.74
1764751519.7426481,1.65
1764751519.7487712,1.87
1764751519.755011,1.63
1764751519.76129,1.35
1764751519.767495,1.59
1764751519.773928,1.59
1764751519.7799292,1.67
1764751519.786361,1.67
1764751519.7926772,1.47
1764751519.798775,1.85
1764751519.805027,2.34
1764751519.811221,2.92
1764751519.817502,3.16
1764751519.824215,3.15
1764751519.829917,2.28
1764751519.836268,0.83
1764751519.842605,1.07
1764751519.848784,1.95
1764751519.8550038,1.77
1764751519.8612978,1.47
1764751519.867462,1.7
1764751519.873743,1.61
1764751519.879952,1.64
1764751519.886366,1.75
1764751519.8926988,1.62
1764751519.898717,1.77
1764751519.9050188,1.79
1764751519.911335,1.81
1764751519.9174469,1.82
1764751519.923743,1.5
1764751519.929909,1.65
1764751519.936307,1.89
1764751519.942593,1.65
1764751519.954796,1.76
1764751519.967272,1.78
1764751520.013292,1.81
1764751520.0338151,2.02
1764751520.039556,1.76
1764751520.039854,1.71
1764751520.040268,1.92
1764751520.0404701,1.83
1764751520.0409448,1.89
1764751520.0411751,1.78
1764751520.041588,1.89
1764751520.042214,2.29
1764751520.0424352,1.89
1764751520.0427651,1.76
1764751520.043211,1.92
1764751520.043652,1.84
1764751520.048831,2.04
1764751520.063017,1.88
1764751520.06339,1.75
1764751520.0675032,2.08
1764751520.077929,1.95
1764751520.080008,1.92
1764751520.08722,1.97
1764751520.0930939,1.89
1764751520.098676,2.05
1764751520.104953,1.91
1764751520.111191,1.79
1764751520.1174212,1.93
1764751520.123703,1.65
1764751520.1300192,1.73
1764751520.136265,1.92
1764751520.142435,1.65
1764751520.148712,1.75
1764751520.154913,1.78
1764751520.161398,1.73
1764751520.167441,1.84
1764751520.173646,1.75
1764751520.179887,1.94
1764751520.186177,1.96
1764751520.1924648,1.57
1764751520.1986508,1.77
1764751520.2049642,1.85
1764751520.2111192,1.8
1764751520.2174149,2.01
1764751520.223683,1.78
1764751520.229861,1.73
1764751520.2361119,1.82
1764751520.24248,1.82
1764751520.24872,2.0
1764751520.2550368,1.75
1764751520.261308,1.75
1764751520.2675369,2.11
1764751520.2737122,1.78
1764751520.279964,1.67
1764751520.2864919,1.83
1764751520.29249,1.8
1764751520.298697,1.89
1764751520.305291,1.63
1764751520.31118,1.69
1764751520.317415,2.09
1764751520.323709,1.79
1764751520.329877,1.74
1764751520.336111,2.05
1764751520.342401,1.69
1764751520.348673,1.74
1764751520.354934,1.77
1764751520.361111,1.74
1764751520.367348,1.95
1764751520.373586,1.8
1764751520.379843,2.05
1764751520.3860679,2.17
1764751520.392371,1.77
1764751520.398616,1.92
1764751520.4049149,1.96
1764751520.411083,1.86
1764751520.417365,1.9
1764751520.4237828,1.74
1764751520.429873,1.76
1764751520.436091,1.74
1764751520.4424052,1.67
1764751520.44857,1.81
1764751520.45504,1.71
1764751520.461141,1.63
1764751520.4673312,1.86
1764751520.4736152,1.74
1764751520.4799008,1.78
1764751520.4860659,1.81
1764751520.4926069,1.58
1764751520.498637,1.83
1764751520.504868,1.81
1764751520.511188,1.72
1764751520.517369,2.01
1764751520.523615,1.93
1764751520.5298922,2.57
1764751520.536115,3.16
1764751520.542505,3.15
1764751520.548606,2.83
1764751520.5549388,1.42
1764751520.561225,1.12
1764751520.5674188,1.92
1764751520.5737238,1.79
1764751520.579913,1.67
1764751520.586085,1.83
1764751520.5924852,1.69
1764751520.5986292,1.78
1764751520.604873,1.58
1764751520.611027,1.55
1764751520.6173198,1.94
1764751520.623615,1.63
1764751520.629861,1.53
1764751520.636069,1.74
1764751520.643044,1.71
1764751520.6490932,1.8
1764751520.6548638,1.63
1764751520.662644,1.62
1764751520.667891,1.87
1764751520.6774359,1.64
1764751520.679968,1.7
1764751520.686228,1.79
1764751520.692845,1.63
1764751520.699539,1.84
1764751520.704972,1.82
1764751520.7113652,1.77
1764751520.717942,1.94
1764751520.7244658,1.7
1764751520.733305,1.75
1764751520.736675,1.88
1764751520.7451231,1.75
1764751520.748807,1.89
1764751520.754981,1.88
1764751520.761347,1.82
1764751520.767433,1.97
1764751520.773822,1.81
1764751520.779957,1.89
1764751520.7862122,1.9
1764751520.792413,1.72
1764751520.798663,1.87
1764751520.804855,1.72
1764751520.811162,1.67
1764751520.81736,1.88
1764751520.8236318,1.63
1764751520.8298602,1.67
1764751520.8361092,1.8
1764751520.842711,1.54
1764751520.850223,1.74
1764751520.8554811,1.7
1764751520.861121,1.57
1764751520.87185,1.74
1764751520.874769,1.58
1764751520.882213,1.63
1764751520.886601,1.71
1764751520.892562,1.52
1764751520.898735,1.73
1764751520.904959,1.69
1764751520.911065,1.63
1764751520.9173498,1.86
1764751520.9240441,1.56
1764751520.929893,1.58
1764751520.9361339,1.77
1764751520.942394,1.55
1764751520.9485922,1.69
1764751520.954787,1.62
1764751520.9611561,1.58
1764751520.967461,1.79
1764751520.973623,1.57
1764751520.979866,1.65
1764751520.986049,1.77
1764751520.992749,1.54
1764751520.998615,1.74
1764751521.004801,1.66
1764751521.0112681,1.48
1764751521.0174139,1.74
1764751521.023722,1.65
1764751521.0298612,1.61
1764751521.0360901,1.62
1764751521.04237,1.49
1764751521.048565,1.82
1764751521.054802,1.75
1764751521.061111,1.46
1764751521.067275,1.57
1764751521.073558,1.56
1764751521.079763,1.68
1764751521.086069,1.6
1764751521.09233,1.36
1764751521.0984478,1.62
1764751521.104862,1.61
1764751521.111016,1.5
1764751521.1173482,1.74
1764751521.123512,1.62
1764751521.129758,1.67
1764751521.135982,1.88
1764751521.142337,1.67
1764751521.148457,1.75
1764751521.1547258,1.68
1764751521.16107,1.58
1764751521.167261,1.75
1764751521.173606,1.41
1764751521.182226,1.47
1764751521.1930938,1.56
1764751521.204185,1.33
1764751521.2043278,1.53
1764751521.217939,1.47
1764751521.2186959,1.35
1764751521.218843,1.57
1764751521.2371871,1.4
1764751521.23738,1.42
1764751521.2375622,1.51
1764751521.242846,1.29
1764751521.248629,1.59
1764751521.2548559,1.64
1764751521.261486,1.26
1764751521.267346,1.3
1764751521.2736719,1.43
1764751521.27982,1.86
1764751521.286009,2.54
1764751521.2924109,2.81
1764751521.2987258,2.87
1764751521.304817,2.12
1764751521.31137,0.89
1764751521.335449,1.07
1764751521.336258,1.35
1764751521.337079,1.45
1764751521.337354,1.4
1764751521.342344,1.15
1764751521.348726,1.36
1764751521.3569868,1.34
1764751521.3639538,1.2
1764751521.3672168,1.37
1764751521.3754199,1.27
1764751521.379783,1.33
1764751521.386017,1.3
1764751521.392409,1.06
1764751521.3984718,1.26
1764751521.404789,1.24
1764751521.410966,1.14
1764751521.417278,1.37
1764751521.4237251,1.15
1764751521.429798,1.21
1764751521.4360042,1.37
1764751521.442197,1.16
1764751521.448398,1.38
1764751521.454678,1.34
1764751521.460994,1.12
1764751521.46709,1.3
1764751521.4734888,1.18
1764751521.479806,1.22
1764751521.48604,1.31
1764751521.492324,1.15
1764751521.498549,1.36
1764751521.5048409,1.3
1764751521.51103,1.19
1764751521.5172539,1.39
1764751521.524014,1.22
1764751521.530497,1.31
1764751521.536051,1.42
1764751521.542999,1.17
1764751521.551382,1.34
1764751521.563794,1.29
1764751521.564105,1.2
1764751521.567245,1.24
1764751521.573468,0.98
1764751521.579747,1.14
1764751521.5860322,1.34
1764751521.592213,0.93
1764751521.5986822,0.97
1764751521.604832,1.01
1764751521.611082,0.95
1764751521.6173341,1.13
1764751521.623542,0.92
1764751521.629916,1.0
1764751521.6360378,1.14
1764751521.6425269,0.84
1764751521.64854,1.1
1764751521.654777,1.24
1764751521.6610298,0.93
1764751521.6673632,0.9
1764751521.673513,0.9
1764751521.6796758,1.02
1764751521.68591,1.04
1764751521.6922371,0.88
1764751521.698507,1.12
1764751521.7047522,1.04
1764751521.710995,0.91
1764751521.717182,1.18
1764751521.723677,0.96
1764751521.7296681,0.98
1764751521.735947,1.11
1764751521.74227,0.92
1764751521.748394,1.09
1764751521.754786,1.06
1764751521.760959,0.95
1764751521.7674692,1.13
1764751521.773611,0.95
1764751521.780134,1.04
1764751521.785994,1.11
1764751521.7929301,0.89
1764751521.798601,1.08
1764751521.8049011,0.98
1764751521.811092,0.95
1764751521.8171232,1.18
1764751521.823544,0.95
1764751521.829705,1.02
1764751521.835953,1.16
1764751521.842449,0.87
1764751521.848373,1.05
1764751521.854712,1.05
1764751521.8609312,0.96
1764751521.867213,1.19
1764751521.873495,0.98
1764751521.8796642,1.02
1764751521.885942,1.22
1764751521.892173,1.07
1764751521.898407,1.28
1764751521.9046469,1.26
1764751521.911114,1.13
1764751521.917193,1.31
1764751521.9237592,1.1
1764751521.929891,1.17
1764751521.935889,1.24
1764751521.942229,0.93
1764751521.948373,1.11
1764751521.954655,1.11
1764751521.960831,0.97
1764751521.967105,1.15
1764751521.9737012,1.03
1764751521.979572,1.1
1764751521.985844,1.18
1764751521.992262,1.03
1764751521.99843,1.16
1764751522.004695,1.04
1764751522.0109499,1.04
1764751522.0171452,1.29
1764751522.023467,1.08
1764751522.029585,1.14
1764751522.0360131,1.3
1764751522.0422359,1.41
1764751522.0484521,2.17
1764751522.054764,2.71
1764751522.060971,2.65
1764751522.06718,2.34
1764751522.073637,1.01
1764751522.0795898,0.72
1764751522.085949,1.28
1764751522.0922089,1.15
1764751522.098349,1.25
1764751522.104546,1.21
1764751522.1109078,1.15
1764751522.1170719,1.36
1764751522.123296,1.17
1764751522.129608,1.26
1764751522.136032,1.4
1764751522.142175,1.2
1764751522.1484008,1.33
1764751522.154669,1.29
1764751522.160807,1.24
1764751522.167039,1.5
1764751522.173295,1.28
1764751522.179583,1.31
1764751522.186044,1.45
1764751522.192108,1.26
1764751522.198364,1.47
1764751522.2050078,1.43
1764751522.2108319,1.35
1764751522.217104,1.56
1764751522.223362,1.41
1764751522.229708,1.46
1764751522.2358348,1.58
1764751522.242145,1.43
1764751522.248307,1.66
1764751522.254564,1.55
1764751522.2608461,1.42
1764751522.267105,1.72
1764751522.2737541,1.62
1764751522.279543,1.68
1764751522.285984,1.66
1764751522.2921312,1.45
1764751522.298369,1.71
1764751522.304641,1.68
1764751522.3108668,1.54
1764751522.3174222,1.68
1764751522.323605,1.55
1764751522.329577,1.64
1764751522.335883,1.65
1764751522.3421671,1.45
1764751522.348444,1.63
1764751522.354731,1.51
1764751522.3609788,1.44
1764751522.3691149,1.67
1764751522.373433,1.43
1764751522.379654,1.48
1764751522.386005,1.66
1764751522.3921359,1.42
1764751522.3984709,1.58
1764751522.404861,1.57
1764751522.410843,1.47
1764751522.417196,1.64
1764751522.4235468,1.47
1764751522.429642,1.54
1764751522.436032,1.65
1764751522.442267,1.52
1764751522.448535,1.71
1764751522.454705,1.6
1764751522.460927,1.53
1764751522.467272,1.75
1764751522.47348,1.57
1764751522.479587,1.65
1764751522.4858801,1.74
1764751522.492137,1.49
1764751522.498361,1.72
1764751522.50479,1.68
1764751522.5108638,1.6
1764751522.517014,1.77
1764751522.524122,1.57
1764751522.529637,1.7
1764751522.5358841,1.79
1764751522.5425448,1.55
1764751522.553826,1.73
1764751522.557753,1.68
1764751522.5607831,1.58
1764751522.620818,1.78
1764751522.621024,1.63
1764751522.621136,1.69
1764751522.621242,1.76
1764751522.621355,1.55
1764751522.621475,1.79
1764751522.621611,1.75
1764751522.626197,1.62
1764751522.626312,1.79
1764751522.626422,1.65
1764751522.637058,1.77
1764751522.638171,1.82
1764751522.6420438,1.58
1764751522.648428,1.8
1764751522.663842,1.76
1764751522.664265,1.69
1764751522.66708,1.85
1764751522.674478,1.73
1764751522.679552,1.89
1764751522.6857972,2.01
1764751522.692012,1.8
1764751522.698323,2.0
1764751522.7045288,1.94
1764751522.710737,1.84
1764751522.7170491,1.94
1764751522.72354,1.76
1764751522.729465,1.87
1764751522.735771,1.88
1764751522.742033,1.62
1764751522.7481978,1.85
1764751522.754465,1.83
1764751522.760724,1.68
1764751522.766968,1.83
1764751522.773501,1.66
1764751522.7795231,1.8
1764751522.785855,1.89
1764751522.791987,1.67
1764751522.79825,1.87
1764751522.804514,1.79
1764751522.810774,1.75
1764751522.816971,1.95
1764751522.823574,1.75
1764751522.8294358,1.91
1764751522.8357608,2.2
1764751522.8421419,2.57
1764751522.848292,3.16
1764751522.854462,3.16
1764751522.860817,2.91
1764751522.8672252,1.65
1764751522.873576,1.16
1764751522.879646,1.92
1764751522.886003,2.12
1764751522.892117,1.69
1764751522.89838,1.83
1764751522.904564,1.86
1764751522.910799,1.77
1764751522.917008,1.94
1764751522.923337,1.76
1764751522.9294841,1.82
1764751522.935694,1.9
1764751522.942056,1.73
1764751522.9482272,1.94
1764751522.954565,1.86
1764751522.9607449,1.77
1764751522.9671922,2.02
1764751522.97363,1.85
1764751522.979584,1.91
1764751522.985682,1.95
1764751522.992196,1.8
1764751522.998312,2.02
1764751523.004965,1.95
1764751523.0108092,1.85
1764751523.016991,2.05
1764751523.024308,1.89
1764751523.029556,1.99
1764751523.035733,2.08
1764751523.0420392,1.89
1764751523.048237,2.1
1764751523.054456,2.09
1764751523.060689,1.99
1764751523.0669281,2.16
1764751523.073338,1.99
1764751523.079417,2.1
1764751523.085649,2.19
1764751523.0920682,1.97
1764751523.0982678,2.19
1764751523.104545,2.14
1764751523.1106791,1.97
1764751523.11691,2.14
1764751523.1236749,1.95
1764751523.129456,2.0
1764751523.135894,2.06
1764751523.142061,1.83
1764751523.148211,1.99
1764751523.1545181,1.9
1764751523.160727,1.8
1764751523.166948,1.99
1764751523.173281,1.8
1764751523.179428,1.85
1764751523.185674,1.99
1764751523.192266,1.78
1764751523.198414,1.94
1764751523.2043982,1.83
1764751523.210707,1.8
1764751523.21695,2.03
1764751523.2236001,1.81
1764751523.229564,1.89
1764751523.235682,1.98
1764751523.24206,1.74
1764751523.2482078,1.99
1764751523.254692,1.94
1764751523.260821,1.78
1764751523.2668722,2.0
1764751523.273485,1.83
1764751523.279435,1.9
1764751523.285651,1.99
1764751523.2919328,1.8
1764751523.2982762,1.98
1764751523.30444,1.89
1764751523.3106759,1.78
1764751523.31694,1.96
1764751523.3234181,1.79
1764751523.329361,1.89
1764751523.335689,1.93
1764751523.341933,1.74
1764751523.348119,1.95
1764751523.354502,1.86
1764751523.360607,1.77
1764751523.366859,1.98
1764751523.3733928,1.78
1764751523.379343,1.83
1764751523.385776,1.92
1764751523.391934,1.76
1764751523.398179,1.95
1764751523.404769,1.86
1764751523.4106581,1.76
1764751523.41695,1.98
1764751523.423522,1.79
1764751523.429485,1.88
1764751523.435647,1.92
1764751523.441955,1.74
1764751523.448252,1.99
1764751523.45472,1.89
1764751523.4607291,1.82
1764751523.4669151,2.09
1764751523.4735382,1.9
1764751523.479485,1.97
