timestamp,ecg_value
1764750821.40495,1.72
1764750821.411176,1.73
1764750821.417154,1.72
1764750821.423413,1.69
1764750821.4297311,1.67
1764750821.4358668,1.65
1764750821.442215,1.64
1764750821.4489,1.66
1764750821.454603,1.68
1764750821.460971,1.68
1764750821.46716,1.68
1764750821.473432,1.66
1764750821.4796119,1.64
1764750821.4858701,1.63
1764750821.492102,1.63
1764750821.498295,1.64
1764750821.5046961,1.64
1764750821.5108202,1.55
1764750821.517511,1.52
1764750821.523586,1.57
1764750821.5296361,1.49
1764750821.5359979,1.54
1764750821.542072,1.57
1764750821.548762,1.53
1764750821.554585,1.56
1764750821.560831,1.52
1764750821.567049,1.56
1764750821.57323,1.58
1764750821.57952,1.51
1764750821.5857458,1.55
1764750821.591969,1.57
1764750821.598303,1.52
1764750821.604501,1.58
1764750821.610775,1.52
1764750821.6170628,1.52
1764750821.623227,1.57
1764750821.629523,1.5
1764750821.6356921,1.56
1764750821.64203,1.57
1764750821.648289,1.5
1764750821.65444,1.56
1764750821.6608791,1.55
1764750821.667031,1.53
1764750821.673203,1.56
1764750821.679554,1.49
1764750821.685877,1.55
1764750821.69194,1.52
1764750821.698283,1.48
1764750821.704551,1.56
1764750821.710849,1.56
1764750821.71713,1.54
1764750821.723168,1.56
1764750821.729556,1.48
1764750821.7358232,1.51
1764750821.742039,1.6
1764750821.7482638,1.54
1764750821.754551,1.58
1764750821.760764,1.56
1764750821.767025,1.6
1764750821.7733068,1.69
1764750821.779587,1.66
1764750821.785742,1.74
1764750821.791991,1.74
1764750821.798419,1.67
1764750821.8044171,1.66
1764750821.810802,1.61
1764750821.817037,1.59
1764750821.823123,1.59
1764750821.82953,1.5
1764750821.835783,1.53
1764750821.841975,1.5
1764750821.848263,1.47
1764750821.854539,1.6
1764750821.860796,1.48
1764750821.867058,1.47
1764750821.873176,1.59
1764750821.8794858,1.49
1764750821.8860202,1.54
1764750821.8919559,1.58
1764750821.898251,1.51
1764750821.904566,1.54
1764750821.9108312,1.54
1764750821.917016,1.66
1764750821.9232142,2.16
1764750821.929491,2.84
1764750821.935814,3.11
1764750821.942037,2.76
1764750821.948277,1.52
1764750821.954429,0.99
1764750821.960813,1.48
1764750821.967017,1.72
1764750821.973119,1.56
1764750821.9794319,1.41
1764750821.98584,1.54
1764750821.991967,1.54
1764750821.9981718,1.46
1764750822.00467,1.56
1764750822.0107698,1.52
1764750822.0169861,1.5
1764750822.02315,1.59
1764750822.029509,1.53
1764750822.035716,1.55
1764750822.041947,1.56
1764750822.0482,1.52
1764750822.054425,1.61
1764750822.060755,1.58
1764750822.067032,1.56
1764750822.073157,1.63
1764750822.079424,1.57
1764750822.0855849,1.61
1764750822.0920231,1.62
1764750822.098212,1.59
1764750822.104474,1.65
1764750822.110773,1.64
1764750822.1170182,1.63
1764750822.12312,1.71
1764750822.129458,1.67
1764750822.13567,1.72
1764750822.14196,1.73
1764750822.1483278,1.67
1764750822.15443,1.72
1764750822.160641,1.71
1764750822.167109,1.72
1764750822.173097,1.77
1764750822.179413,1.68
1764750822.185704,1.71
1764750822.191972,1.71
1764750822.198156,1.65
1764750822.204413,1.7
1764750822.2108648,1.63
1764750822.217035,1.56
1764750822.223129,1.61
1764750822.229447,1.52
1764750822.235878,1.54
1764750822.241995,1.57
1764750822.2482061,1.5
1764750822.254449,1.53
1764750822.260596,1.51
1764750822.2670279,1.53
1764750822.2731469,1.6
1764750822.2793941,1.53
1764750822.285676,1.58
1764750822.2920818,1.58
1764750822.298195,1.54
1764750822.3044102,1.62
1764750822.310685,1.56
1764750822.316906,1.56
1764750822.323084,1.61
1764750822.329355,1.55
1764750822.335559,1.57
1764750822.3418791,1.62
1764750822.34819,1.58
1764750822.35436,1.6
1764750822.3605828,1.57
1764750822.366836,1.58
1764750822.3730528,1.62
1764750822.379479,1.51
1764750822.385673,1.58
1764750822.3919098,1.66
1764750822.398147,1.57
1764750822.40433,1.59
1764750822.41072,1.53
1764750822.416974,1.58
1764750822.423115,1.64
1764750822.4294221,1.52
1764750822.4356549,1.56
1764750822.441857,1.62
1764750822.44843,1.55
1764750822.4544158,1.61
1764750822.460646,1.56
1764750822.466916,1.55
1764750822.4731362,1.59
1764750822.479438,1.54
1764750822.485742,1.62
1764750822.491943,1.62
1764750822.4980962,1.56
1764750822.504578,1.67
1764750822.510633,1.73
1764750822.51701,1.73
1764750822.5232399,1.72
1764750822.529361,1.72
1764750822.5359738,1.73
1764750822.5419562,1.67
1764750822.5481029,1.64
1764750822.5543392,1.62
1764750822.5606332,1.5
1764750822.566835,1.5
1764750822.573002,1.58
1764750822.579345,1.48
1764750822.585662,1.53
1764750822.5917969,1.57
1764750822.598059,1.51
1764750822.6042628,1.55
1764750822.610622,1.51
1764750822.616889,1.49
1764750822.623147,1.58
1764750822.629317,1.54
1764750822.635586,1.53
1764750822.642166,1.49
1764750822.648225,1.56
1764750822.654358,1.88
1764750822.660545,2.38
1764750822.6667788,3.03
1764750822.673064,3.09
1764750822.6792781,2.39
1764750822.685597,1.23
1764750822.691801,1.16
1764750822.698048,1.62
1764750822.704294,1.69
1764750822.710505,1.49
1764750822.716795,1.5
1764750822.723042,1.6
1764750822.7292402,1.51
1764750822.735616,1.53
1764750822.741792,1.53
1764750822.748063,1.52
1764750822.754315,1.61
1764750822.7605171,1.55
1764750822.766846,1.54
1764750822.7729611,1.6
1764750822.779267,1.54
1764750822.785513,1.56
1764750822.79182,1.58
1764750822.7980769,1.57
1764750822.8042822,1.62
1764750822.810518,1.56
1764750822.816802,1.57
1764750822.822981,1.65
1764750822.829269,1.59
1764750822.835542,1.64
1764750822.8417752,1.65
1764750822.8481228,1.61
1764750822.854254,1.68
1764750822.8738902,1.63
1764750822.892596,1.67
1764750822.902956,1.76
1764750822.904613,1.66
1764750822.924344,1.71
1764750822.924691,1.74
1764750822.924944,1.67
1764750822.9251041,1.74
1764750822.92523,1.71
1764750822.9253252,1.69
1764750822.9254231,1.73
1764750822.929279,1.64
1764750822.9357948,1.67
1764750822.941715,1.64
1764750822.9498398,1.59
1764750822.954259,1.62
1764750822.960654,1.55
1764750822.966816,1.54
1764750822.972973,1.59
1764750822.979264,1.51
1764750822.985465,1.54
1764750822.99177,1.54
1764750822.9980319,1.52
1764750823.004208,1.59
1764750823.0104508,1.53
1764750823.0167522,1.55
1764750823.022948,1.6
1764750823.0293162,1.52
1764750823.035444,1.58
1764750823.041685,1.58
1764750823.0479648,1.52
1764750823.054192,1.59
1764750823.060481,1.59
1764750823.0668,1.56
1764750823.073004,1.58
1764750823.079156,1.53
1764750823.0854452,1.59
1764750823.091717,1.58
1764750823.097928,1.55
1764750823.104165,1.61
1764750823.1104798,1.53
1764750823.11674,1.53
1764750823.1229372,1.56
1764750823.129237,1.52
1764750823.1354399,1.57
1764750823.1416771,1.53
1764750823.147968,1.49
1764750823.1542919,1.58
1764750823.1604621,1.55
1764750823.166843,1.53
1764750823.173049,1.56
1764750823.179202,1.5
1764750823.185499,1.56
1764750823.191728,1.56
1764750823.197939,1.5
1764750823.204221,1.57
1764750823.210409,1.5
1764750823.2167082,1.54
1764750823.222977,1.63
1764750823.2292218,1.59
1764750823.235511,1.7
1764750823.2417128,1.73
1764750823.2479649,1.65
1764750823.254192,1.74
1764750823.260363,1.63
1764750823.266731,1.58
1764750823.273043,1.61
1764750823.279115,1.51
1764750823.285438,1.53
1764750823.291723,1.54
1764750823.298034,1.46
1764750823.3041248,1.49
1764750823.310426,1.45
1764750823.3167841,1.47
1764750823.322932,1.56
1764750823.3291352,1.48
1764750823.335393,1.5
1764750823.3416378,1.51
1764750823.347927,1.49
1764750823.35425,1.53
1764750823.3606899,1.49
1764750823.3667352,1.54
1764750823.37293,1.72
1764750823.3792121,2.07
1764750823.385459,2.83
1764750823.391644,3.03
1764750823.3980212,2.61
1764750823.4042308,1.59
1764750823.4104471,0.96
1764750823.416692,1.42
1764750823.422924,1.7
1764750823.4292321,1.46
1764750823.4354298,1.44
1764750823.441681,1.52
1764750823.44805,1.48
1764750823.4541628,1.5
1764750823.460342,1.46
1764750823.466787,1.45
1764750823.4729311,1.49
1764750823.479139,1.47
1764750823.485385,1.55
1764750823.491659,1.5
1764750823.4980931,1.42
1764750823.50415,1.54
1764750823.5105448,1.54
1764750823.5167942,1.51
1764750823.522871,1.54
1764750823.529141,1.52
1764750823.5353541,1.57
1764750823.541638,1.57
1764750823.547955,1.5
1764750823.554144,1.59
1764750823.56037,1.57
1764750823.566804,1.57
1764750823.572928,1.64
1764750823.579144,1.58
1764750823.585331,1.63
1764750823.591827,1.6
1764750823.597971,1.57
1764750823.6041112,1.7
1764750823.610367,1.63
1764750823.61674,1.6
1764750823.62296,1.68
1764750823.62915,1.62
1764750823.6353972,1.64
1764750823.641558,1.64
1764750823.648015,1.61
1764750823.65411,1.65
1764750823.660356,1.54
1764750823.666691,1.55
1764750823.672854,1.6
1764750823.679034,1.51
1764750823.685318,1.53
1764750823.691539,1.52
1764750823.698019,1.5
1764750823.704121,1.53
1764750823.710368,1.46
1764750823.7166002,1.48
1764750823.722805,1.52
1764750823.729113,1.46
1764750823.7353442,1.52
1764750823.741514,1.53
1764750823.747908,1.5
1764750823.7540932,1.59
1764750823.760364,1.51
1764750823.7665331,1.48
1764750823.772885,1.59
1764750823.779092,1.52
1764750823.785416,1.54
1764750823.791637,1.55
1764750823.797966,1.52
1764750823.804019,1.57
1764750823.810354,1.51
1764750823.8165839,1.52
1764750823.822891,1.58
1764750823.82914,1.51
1764750823.8353229,1.54
1764750823.841563,1.52
1764750823.847884,1.49
1764750823.854024,1.61
1764750823.860327,1.54
1764750823.866648,1.49
1764750823.8728662,1.53
1764750823.87903,1.51
1764750823.885375,1.55
1764750823.891619,1.53
1764750823.89814,1.51
1764750823.9040089,1.65
1764750823.910367,1.62
1764750823.916595,1.62
1764750823.923,1.73
1764750823.929114,1.65
1764750823.935317,1.67
1764750823.941525,1.64
1764750823.94793,1.58
1764750823.954039,1.64
1764750823.960263,1.5
1764750823.966528,1.45
1764750823.9728,1.52
1764750823.979059,1.49
1764750823.985352,1.51
1764750823.991542,1.49
1764750823.998296,1.46
1764750824.0040681,1.53
1764750824.0104399,1.51
1764750824.016574,1.49
1764750824.0228522,1.52
1764750824.028967,1.49
1764750824.035267,1.54
1764750824.041482,1.53
1764750824.0478709,1.48
1764750824.054014,1.64
1764750824.0605068,1.84
1764750824.066676,2.5
1764750824.0728261,3.08
1764750824.079044,2.88
1764750824.085262,2.16
1764750824.091537,1.14
1764750824.0982609,1.14
1764750824.10397,1.7
1764750824.110322,1.64
1764750824.116516,1.44
1764750824.122798,1.49
1764750824.129023,1.48
1764750824.135241,1.52
1764750824.141526,1.54
1764750824.147837,1.48
1764750824.154021,1.54
1764750824.160245,1.5
1764750824.166472,1.49
1764750824.172781,1.58
1764750824.178923,1.53
1764750824.185219,1.56
1764750824.191447,1.54
1764750824.1977012,1.52
1764750824.2039921,1.59
1764750824.210232,1.53
1764750824.21644,1.58
1764750824.2227688,1.64
1764750824.228961,1.54
1764750824.2352052,1.62
1764750824.24142,1.64
1764750824.247735,1.59
1764750824.254006,1.67
1764750824.2601962,1.64
1764750824.26644,1.64
1764750824.272773,1.71
1764750824.278917,1.64
1764750824.308098,1.68
1764750824.316701,1.68
1764750824.316845,1.66
1764750824.3169851,1.74
1764750824.3171232,1.69
1764750824.3172832,1.68
1764750824.365827,1.7
1764750824.366097,1.65
1764750824.366257,1.71
1764750824.366411,1.67
1764750824.36657,1.57
1764750824.3667278,1.61
1764750824.366883,1.58
1764750824.367042,1.56
1764750824.374079,1.6
1764750824.381757,1.52
1764750824.385401,1.57
1764750824.391497,1.56
1764750824.39772,1.51
1764750824.403968,1.59
1764750824.410201,1.55
1764750824.4165068,1.55
1764750824.422709,1.57
1764750824.42895,1.54
1764750824.4353,1.63
1764750824.4414961,1.59
1764750824.4477599,1.53
1764750824.454067,1.62
1764750824.4601889,1.59
1764750824.4662762,1.57
1764750824.472627,1.62
1764750824.478936,1.57
1764750824.4852,1.62
1764750824.491437,1.6
1764750824.497803,1.55
1764750824.503917,1.62
1764750824.510276,1.58
1764750824.516425,1.56
1764750824.5226738,1.6
1764750824.528925,1.55
1764750824.535143,1.61
1764750824.5413451,1.6
1764750824.547777,1.55
1764750824.553961,1.61
1764750824.56016,1.57
1764750824.5664,1.57
1764750824.5726562,1.58
1764750824.578971,1.56
1764750824.585248,1.69
1764750824.591342,1.72
1764750824.5979068,1.66
1764750824.6039062,1.74
1764750824.6101801,1.79
1764750824.6164281,1.76
1764750824.622646,1.73
1764750824.62889,1.63
1764750824.6351051,1.7
1764750824.6413498,1.68
1764750824.6478798,1.51
1764750824.6539142,1.54
1764750824.660144,1.52
1764750824.666514,1.52
1764750824.672695,1.57
1764750824.678881,1.5
1764750824.685247,1.55
1764750824.6913338,1.54
1764750824.69763,1.51
1764750824.703826,1.58
1764750824.7102132,1.53
1764750824.716406,1.53
1764750824.722572,1.58
1764750824.729027,1.53
1764750824.7351282,1.58
1764750824.741556,1.65
1764750824.747835,1.75
1764750824.753978,2.39
1764750824.76021,3.05
1764750824.766589,3.03
1764750824.7726989,2.45
1764750824.7788942,1.23
1764750824.785105,1.1
1764750824.791369,1.65
1764750824.798155,1.64
1764750824.803892,1.52
1764750824.810118,1.49
1764750824.816364,1.53
1764750824.822596,1.56
1764750824.828938,1.48
1764750824.835129,1.54
1764750824.841332,1.57
1764750824.8478441,1.49
1764750824.8539698,1.55
1764750824.860297,1.56
1764750824.8663669,1.55
1764750824.8726242,1.57
1764750824.878806,1.53
1764750824.885103,1.62
1764750824.89136,1.58
1764750824.897741,1.54
1764750824.9037728,1.65
1764750824.9101791,1.59
1764750824.916354,1.58
1764750824.9225988,1.66
1764750824.928928,1.61
1764750824.935157,1.65
1764750824.941439,1.67
1764750824.948131,1.63
1764750824.953761,1.71
1764750824.960083,1.66
1764750824.9663858,1.66
1764750824.97264,1.73
1764750824.9789288,1.68
1764750824.98513,1.71
1764750824.991337,1.71
1764750824.997767,1.67
1764750825.003863,1.74
1764750825.010234,1.69
1764750825.0163689,1.69
1764750825.022601,1.71
1764750825.028818,1.61
1764750825.03515,1.67
1764750825.041308,1.66
1764750825.0477068,1.56
1764750825.05381,1.61
1764750825.0603762,1.56
1764750825.066346,1.54
1764750825.072621,1.6
1764750825.078858,1.54
1764750825.085272,1.55
1764750825.091323,1.57
1764750825.097787,1.55
1764750825.1039722,1.6
1764750825.1100311,1.55
1764750825.116311,1.57
1764750825.122693,1.63
1764750825.128823,1.55
1764750825.135008,1.61
1764750825.141269,1.63
1764750825.147712,1.57
1764750825.153746,1.62
1764750825.160521,1.56
1764750825.166326,1.58
1764750825.172568,1.65
1764750825.1787531,1.57
1764750825.185021,1.59
1764750825.191371,1.6
1764750825.197542,1.56
1764750825.203808,1.62
1764750825.210049,1.56
1764750825.216369,1.56
1764750825.2225301,1.62
1764750825.228737,1.54
1764750825.235014,1.59
1764750825.241282,1.6
1764750825.2476249,1.54
1764750825.253836,1.61
1764750825.2600698,1.56
1764750825.2663958,1.56
1764750825.272525,1.63
1764750825.278812,1.61
1764750825.284998,1.71
1764750825.291251,1.73
1764750825.2976189,1.7
1764750825.303754,1.83
1764750825.310049,1.71
1764750825.316392,1.65
1764750825.322517,1.69
1764750825.328776,1.66
1764750825.3350809,1.63
1764750825.341242,1.53
1764750825.347542,1.48
1764750825.3537421,1.55
1764750825.359988,1.5
1764750825.3662798,1.5
1764750825.3724859,1.53
1764750825.3788102,1.49
1764750825.385102,1.52
1764750825.3912299,1.51
1764750825.3980072,1.48
1764750825.403818,1.59
1764750825.410058,1.55
1764750825.4162529,1.51
1764750825.422427,1.53
1764750825.4287722,1.5
1764750825.435068,1.66
1764750825.441256,1.99
1764750825.447555,2.68
1764750825.453717,3.14
1764750825.4600031,2.88
1764750825.466248,1.87
1764750825.472568,1.05
1764750825.4787772,1.33
1764750825.485031,1.72
1764750825.4912791,1.58
1764750825.4978619,1.37
1764750825.503944,1.57
1764750825.5100029,1.57
1764750825.516541,1.5
1764750825.522474,1.52
1764750825.528679,1.5
1764750825.5352051,1.55
1764750825.541312,1.53
1764750825.547637,1.51
1764750825.55371,1.59
1764750825.559996,1.54
1764750825.566256,1.54
1764750825.572522,1.6
1764750825.57872,1.53
1764750825.5849652,1.58
1764750825.591219,1.6
1764750825.597518,1.54
1764750825.603738,1.62
1764750825.609974,1.62
1764750825.6162078,1.56
1764750825.622442,1.62
1764750825.628673,1.63
1764750825.634984,1.67
1764750825.641244,1.66
1764750825.647593,1.64
1764750825.653729,1.71
1764750825.6599529,1.67
1764750825.666201,1.66
1764750825.672441,1.71
1764750825.6786659,1.64
1764750825.684938,1.7
1764750825.691062,1.7
1764750825.6974988,1.63
1764750825.7036211,1.7
1764750825.709931,1.65
1764750825.716224,1.62
1764750825.722392,1.63
1764750825.728694,1.58
1764750825.734942,1.62
1764750825.741128,1.56
1764750825.747423,1.52
1764750825.753657,1.59
1764750825.759934,1.53
1764750825.766142,1.51
1764750825.772384,1.55
1764750825.7786949,1.51
1764750825.784839,1.55
1764750825.7910972,1.57
1764750825.797459,1.52
1764750825.803686,1.57
1764750825.8099709,1.54
1764750825.816136,1.55
1764750825.8223538,1.6
1764750825.828608,1.52
1764750825.834943,1.57
1764750825.841132,1.59
1764750825.847408,1.52
1764750825.853677,1.6
1764750825.8598778,1.56
1764750825.867438,1.54
1764750825.890692,1.58
1764750825.9049249,1.56
1764750825.90522,1.58
1764750825.9053829,1.57
1764750825.905526,1.52
1764750825.905665,1.58
1764750825.924321,1.55
1764750825.942276,1.54
1764750825.943035,1.56
1764750825.945746,1.52
1764750825.945917,1.56
1764750825.946033,1.55
1764750825.947607,1.52
1764750825.953748,1.57
1764750825.961976,1.53
1764750825.966481,1.53
1764750825.9723551,1.6
1764750825.9786282,1.53
1764750825.9848268,1.55
1764750825.991128,1.57
1764750825.997472,1.58
1764750826.003711,1.7
1764750826.009878,1.66
1764750826.016138,1.69
1764750826.0223308,1.81
1764750826.02862,1.68
1764750826.0348659,1.67
1764750826.041149,1.66
1764750826.047439,1.61
1764750826.053629,1.6
1764750826.059838,1.51
1764750826.066062,1.49
1764750826.072396,1.56
1764750826.07862,1.49
1764750826.084832,1.52
1764750826.091137,1.52
1764750826.0975308,1.48
1764750826.103626,1.54
1764750826.109888,1.48
1764750826.116062,1.51
1764750826.122366,1.56
1764750826.1285682,1.49
1764750826.134903,1.53
1764750826.1410801,1.52
1764750826.147373,1.51
1764750826.153574,1.7
1764750826.159821,2.07
1764750826.166173,2.8
1764750826.172315,3.11
1764750826.178611,2.68
1764750826.184829,1.62
1764750826.191073,0.99
1764750826.1974342,1.41
1764750826.203629,1.74
1764750826.209856,1.52
1764750826.216075,1.43
1764750826.222568,1.54
1764750826.2285829,1.47
1764750826.2348568,1.49
1764750826.241086,1.54
1764750826.247377,1.48
1764750826.253599,1.55
1764750826.259767,1.52
1764750826.266059,1.52
1764750826.272276,1.56
1764750826.278517,1.51
1764750826.284833,1.58
1764750826.291039,1.56
1764750826.297351,1.51
1764750826.303514,1.59
1764750826.309855,1.55
1764750826.316103,1.55
1764750826.322274,1.63
1764750826.3284822,1.56
1764750826.3347561,1.62
1764750826.341107,1.64
1764750826.3472881,1.59
1764750826.353621,1.66
1764750826.3597791,1.63
1764750826.366196,1.62
1764750826.372452,1.69
1764750826.37861,1.66
1764750826.384925,1.68
1764750826.391073,1.67
1764750826.3973382,1.63
1764750826.403622,1.71
1764750826.4098299,1.67
1764750826.416082,1.66
1764750826.4223151,1.7
1764750826.428566,1.64
1764750826.434777,1.65
1764750826.440959,1.61
1764750826.44733,1.56
1764750826.453574,1.62
1764750826.459748,1.55
1764750826.466017,1.55
1764750826.4722161,1.56
1764750826.47858,1.47
1764750826.484823,1.53
1764750826.491031,1.56
1764750826.497251,1.48
1764750826.503569,1.52
1764750826.50979,1.52
1764750826.515996,1.53
1764750826.522321,1.58
1764750826.528533,1.5
1764750826.534814,1.56
1764750826.5410318,1.58
1764750826.547563,1.53
1764750826.5535738,1.59
1764750826.559755,1.55
1764750826.566108,1.53
1764750826.5722811,1.62
1764750826.57858,1.54
1764750826.584833,1.57
1764750826.5910652,1.57
1764750826.597344,1.51
1764750826.6035619,1.56
1764750826.609952,1.53
1764750826.616044,1.54
1764750826.622255,1.6
1764750826.628737,1.51
1764750826.6348832,1.54
1764750826.640973,1.56
1764750826.647276,1.49
1764750826.653457,1.55
1764750826.659699,1.52
1764750826.665952,1.52
1764750826.672229,1.56
1764750826.678535,1.52
1764750826.68474,1.55
1764750826.691067,1.53
1764750826.697373,1.5
1764750826.703458,1.59
1764750826.7097669,1.54
1764750826.7160268,1.51
1764750826.72222,1.56
1764750826.728532,1.52
1764750826.734812,1.59
1764750826.740961,1.65
1764750826.747232,1.65
1764750826.7534971,1.73
1764750826.759743,1.73
1764750826.766021,1.69
1764750826.772307,1.71
1764750826.7785091,1.62
1764750826.7846951,1.65
1764750826.791075,1.63
1764750826.7972941,1.49
1764750826.8035588,1.53
1764750826.809759,1.5
1764750826.816007,1.48
1764750826.822193,1.52
1764750826.828512,1.48
1764750826.834665,1.52
1764750826.840978,1.54
1764750826.847271,1.47
1764750826.8535612,1.52
1764750826.859712,1.53
1764750826.8659682,1.53
1764750826.872166,1.56
1764750826.878477,1.47
1764750826.884665,1.52
1764750826.8909922,1.64
1764750826.897283,1.86
1764750826.903402,2.61
1764750826.9097579,3.07
1764750826.915895,2.86
1764750826.922365,1.99
1764750826.928479,0.96
1764750826.9346728,1.27
1764750826.9409559,1.73
1764750826.947259,1.56
1764750826.953435,1.48
1764750826.9596858,1.46
1764750826.965953,1.5
1764750826.9722319,1.54
1764750826.978438,1.47
1764750826.984734,1.51
1764750826.990936,1.52
1764750826.997236,1.48
1764750827.003374,1.55
1764750827.009737,1.52
1764750827.015934,1.52
1764750827.022202,1.57
1764750827.028419,1.49
1764750827.034695,1.54
1764750827.0408902,1.58
1764750827.0472782,1.53
1764750827.05338,1.61
1764750827.0597188,1.56
1764750827.065881,1.56
1764750827.072157,1.66
1764750827.078431,1.57
1764750827.084626,1.61
1764750827.0908039,1.65
1764750827.0972621,1.61
1764750827.103385,1.67
1764750827.109785,1.62
1764750827.1159492,1.63
1764750827.122112,1.72
1764750827.1283798,1.63
1764750827.13461,1.66
1764750827.140905,1.71
1764750827.147202,1.65
1764750827.153377,1.67
1764750827.159626,1.63
1764750827.165927,1.66
1764750827.172191,1.7
1764750827.1783779,1.58
1764750827.184591,1.62
1764750827.190867,1.62
1764750827.197237,1.54
1764750827.203372,1.6
1764750827.209602,1.52
1764750827.215947,1.48
1764750827.222074,1.58
1764750827.2290392,1.52
1764750827.2346969,1.54
1764750827.240871,1.56
1764750827.247136,1.51
1764750827.25359,1.56
1764750827.259705,1.53
1764750827.265866,1.52
1764750827.2721658,1.59
1764750827.278432,1.52
1764750827.284777,1.56
1764750827.2907772,1.58
1764750827.297106,1.54
1764750827.303366,1.6
1764750827.3096058,1.55
1764750827.315763,1.51
1764750827.322019,1.59
1764750827.328435,1.56
1764750827.334549,1.57
1764750827.340788,1.57
1764750827.347102,1.52
1764750827.3533812,1.58
1764750827.359624,1.53
1764750827.365821,1.53
1764750827.371994,1.56
1764750827.378392,1.49
1764750827.3847091,1.54
1764750827.390751,1.58
1764750827.397152,1.5
1764750827.403399,1.55
1764750827.409558,1.52
1764750827.415814,1.48
1764750827.422082,1.57
1764750827.460088,1.52
1764750827.460254,1.52
1764750827.460396,1.54
1764750827.460546,1.5
1764750827.460682,1.55
1764750827.460819,1.51
1764750827.522333,1.52
1764750827.5225139,1.55
1764750827.522861,1.52
1764750827.523631,1.63
1764750827.523796,1.66
1764750827.523954,1.61
1764750827.524278,1.74
1764750827.524533,1.71
1764750827.525326,1.61
1764750827.525824,1.65
1764750827.528322,1.61
1764750827.554485,1.63
1764750827.554754,1.52
1764750827.55485,1.41
1764750827.554931,1.53
1764750827.559547,1.5
1764750827.5673332,1.45
1764750827.572147,1.52
1764750827.578377,1.47
1764750827.5845408,1.49
1764750827.590796,1.52
1764750827.597045,1.47
1764750827.60336,1.52
1764750827.6095161,1.47
1764750827.615757,1.5
1764750827.622256,1.55
1764750827.6288729,1.47
1764750827.634453,1.56
1764750827.640782,1.85
1764750827.647019,2.44
1764750827.6532748,3.05
1764750827.659538,2.91
1764750827.665789,2.13
1764750827.6720269,1.17
1764750827.678314,1.13
1764750827.6845849,1.59
1764750827.690798,1.61
1764750827.697044,1.4
1764750827.703304,1.47
1764750827.7095869,1.49
1764750827.7157602,1.45
1764750827.722084,1.47
1764750827.728398,1.47
1764750827.7346141,1.53
1764750827.740896,1.5
1764750827.747062,1.43
1764750827.753348,1.55
1764750827.759572,1.51
1764750827.76587,1.45
1764750827.772062,1.53
1764750827.7784,1.5
1764750827.784483,1.55
1764750827.7907772,1.55
1764750827.796983,1.5
1764750827.8031979,1.57
1764750827.809469,1.55
1764750827.815785,1.53
1764750827.82206,1.61
1764750827.828297,1.54
1764750827.834453,1.56
1764750827.840754,1.61
1764750827.8469691,1.59
1764750827.853228,1.61
1764750827.859596,1.6
1764750827.8657038,1.63
1764750827.8720052,1.67
1764750827.878335,1.58
1764750827.884442,1.61
1764750827.890743,1.66
1764750827.896996,1.62
1764750827.903201,1.65
1764750827.9095612,1.59
1764750827.915691,1.6
1764750827.921982,1.63
1764750827.928606,1.53
1764750827.934918,1.58
1764750827.9407349,1.59
1764750827.9469922,1.5
1764750827.95329,1.56
1764750827.95945,1.52
1764750827.965705,1.47
1764750827.972023,1.53
1764750827.978441,1.49
1764750827.984409,1.51
1764750827.990828,1.53
1764750827.997211,1.47
1764750828.003246,1.57
1764750828.009491,1.55
1764750828.0156858,1.49
1764750828.0219798,1.56
1764750828.0281851,1.54
1764750828.034388,1.57
1764750828.040685,1.57
1764750828.046977,1.51
1764750828.0532029,1.57
1764750828.059476,1.56
1764750828.065724,1.54
1764750828.071885,1.58
1764750828.078318,1.53
1764750828.084476,1.58
1764750828.090772,1.58
1764750828.0969212,1.5
1764750828.1032472,1.58
1764750828.109474,1.56
1764750828.115595,1.53
1764750828.121959,1.58
1764750828.12832,1.52
1764750828.1344461,1.55
1764750828.140733,1.58
1764750828.147001,1.5
1764750828.1533382,1.56
1764750828.159498,1.53
1764750828.1656241,1.53
1764750828.1718981,1.57
1764750828.178432,1.49
1764750828.1844149,1.56
1764750828.1906471,1.59
1764750828.196887,1.55
1764750828.203198,1.68
1764750828.209395,1.68
1764750828.215689,1.63
1764750828.221877,1.79
1764750828.2282639,1.73
1764750828.2343638,1.67
1764750828.240609,1.64
1764750828.246868,1.6
1764750828.2530649,1.68
1764750828.259412,1.52
1764750828.265703,1.45
1764750828.271918,1.56
1764750828.2782772,1.51
1764750828.2843971,1.5
1764750828.290634,1.52
1764750828.297025,1.49
1764750828.3031812,1.54
1764750828.309438,1.52
1764750828.3156118,1.5
1764750828.321975,1.57
1764750828.328287,1.5
1764750828.334408,1.53
1764750828.340659,1.55
1764750828.347063,1.5
1764750828.3531551,1.66
1764750828.359396,1.93
1764750828.365623,2.6
1764750828.3718321,3.09
1764750828.3783722,2.86
1764750828.384421,2.01
1764750828.3905752,1.09
1764750828.396853,1.24
1764750828.403223,1.7
1764750828.409416,1.58
1764750828.415671,1.46
1764750828.421823,1.56
1764750828.428215,1.52
1764750828.434411,1.51
1764750828.440555,1.52
1764750828.446866,1.5
1764750828.45314,1.58
1764750828.4593432,1.52
1764750828.4655879,1.49
1764750828.471981,1.59
1764750828.478198,1.53
1764750828.484381,1.54
1764750828.490623,1.59
1764750828.496863,1.55
1764750828.5031638,1.61
1764750828.509404,1.58
1764750828.515627,1.56
1764750828.521864,1.62
1764750828.52854,1.57
1764750828.5343459,1.63
1764750828.540616,1.65
1764750828.5468822,1.58
1764750828.553154,1.68
1764750828.559396,1.66
1764750828.5655391,1.64
1764750828.571807,1.71
1764750828.578123,1.66
1764750828.5843542,1.7
1764750828.5907469,1.71
1764750828.596828,1.66
1764750828.603196,1.73
1764750828.609317,1.69
1764750828.6156108,1.68
1764750828.6217878,1.74
1764750828.628217,1.66
1764750828.6343381,1.65
1764750828.640556,1.7
1764750828.646817,1.62
1764750828.6531441,1.65
1764750828.659345,1.61
1764750828.66559,1.55
1764750828.671786,1.6
1764750828.678402,1.56
1764750828.684316,1.58
1764750828.690523,1.58
1764750828.696801,1.52
1764750828.703051,1.59
1764750828.709355,1.58
1764750828.715582,1.55
1764750828.721729,1.63
1764750828.728906,1.55
1764750828.734263,1.59
1764750828.740684,1.64
1764750828.746803,1.58
1764750828.753058,1.64
1764750828.759346,1.61
1764750828.765603,1.57
1764750828.771826,1.67
1764750828.77823,1.6
1764750828.7842581,1.6
1764750828.790593,1.64
1764750828.796886,1.59
1764750828.803105,1.64
1764750828.809248,1.6
1764750828.815596,1.57
1764750828.821996,1.64
1764750828.828427,1.59
1764750828.8342369,1.62
1764750828.840513,1.61
1764750828.8467999,1.55
1764750828.8530262,1.64
1764750828.859295,1.6
1764750828.865522,1.57
1764750828.8718688,1.63
1764750828.878253,1.58
1764750828.884258,1.61
1764750828.890481,1.63
1764750828.896845,1.56
1764750828.90297,1.63
1764750828.909269,1.6
1764750828.915508,1.56
1764750828.921759,1.65
1764750828.928305,1.6
1764750828.934303,1.61
1764750828.9405718,1.63
1764750828.946765,1.63
1764750828.953035,1.75
1764750828.959359,1.73
1764750828.9669352,1.71
1764750829.0083652,1.87
1764750829.00855,1.79
1764750829.008696,1.71
1764750829.0117838,1.72
1764750829.011955,1.69
1764750829.012087,1.68
1764750829.012213,1.57
1764750829.0316641,1.53
1764750829.049658,1.6
1764750829.049887,1.52
1764750829.050606,1.53
1764750829.050694,1.59
1764750829.0507772,1.53
1764750829.0530062,1.58
1764750829.060255,1.56
1764750829.065436,1.53
1764750829.0717351,1.61
1764750829.0780668,1.54
1764750829.084197,1.54
1764750829.0904908,1.57
1764750829.096677,1.52
1764750829.102991,1.66
1764750829.109259,1.92
1764750829.1154282,2.59
1764750829.121744,3.14
1764750829.128039,2.96
1764750829.1341372,2.16
1764750829.140415,1.1
1764750829.146633,1.2
1764750829.152935,1.77
1764750829.159269,1.68
1764750829.165521,1.45
1764750829.171772,1.54
1764750829.178248,1.56
1764750829.184161,1.55
1764750829.190398,1.56
1764750829.196718,1.52
1764750829.202933,1.58
1764750829.2091851,1.57
1764750829.215443,1.52
1764750829.22172,1.61
1764750829.228616,1.57
1764750829.234134,1.56
1764750829.2404659,1.61
1764750829.246633,1.58
1764750829.252955,1.63
1764750829.2592142,1.6
1764750829.265451,1.57
1764750829.271729,1.68
1764750829.278185,1.62
1764750829.2841458,1.64
1764750829.2903948,1.68
1764750829.296705,1.64
1764750829.302995,1.7
1764750829.309164,1.68
1764750829.315454,1.66
1764750829.321737,1.74
1764750829.327992,1.69
1764750829.3341398,1.73
1764750829.3403509,1.75
1764750829.346716,1.67
1764750829.3529532,1.71
1764750829.359178,1.73
1764750829.365506,1.71
1764750829.3717551,1.75
1764750829.377949,1.67
1764750829.384093,1.7
1764750829.3904252,1.71
1764750829.396694,1.61
1764750829.403021,1.66
1764750829.4091678,1.62
1764750829.415461,1.57
1764750829.4217012,1.61
1764750829.428096,1.54
1764750829.434083,1.55
1764750829.440446,1.61
1764750829.446646,1.54
1764750829.452868,1.59
1764750829.4590778,1.56
1764750829.465488,1.55
1764750829.471592,1.61
1764750829.47805,1.55
1764750829.484097,1.56
1764750829.490344,1.63
1764750829.496686,1.56
1764750829.502912,1.61
1764750829.509177,1.62
1764750829.5153978,1.57
1764750829.521618,1.61
1764750829.528039,1.56
1764750829.534135,1.57
1764750829.5404348,1.62
1764750829.546668,1.58
1764750829.552895,1.61
1764750829.559146,1.59
1764750829.56543,1.56
1764750829.571678,1.61
1764750829.578069,1.56
1764750829.584079,1.58
1764750829.590464,1.6
1764750829.5967202,1.53
1764750829.6030169,1.61
1764750829.609222,1.56
1764750829.6154082,1.51
1764750829.621769,1.6
1764750829.6278841,1.56
1764750829.6340501,1.57
1764750829.640396,1.59
1764750829.646656,1.53
1764750829.652834,1.59
1764750829.6590788,1.57
1764750829.665334,1.53
1764750829.671647,1.61
1764750829.67789,1.55
1764750829.684057,1.56
1764750829.690393,1.6
1764750829.696676,1.52
1764750829.7029068,1.57
1764750829.709127,1.58
1764750829.715381,1.55
1764750829.721615,1.6
1764750829.727885,1.57
1764750829.734038,1.63
1764750829.740424,1.72
1764750829.74669,1.66
1764750829.7527978,1.72
1764750829.759191,1.8
1764750829.7654579,1.76
1764750829.7717178,1.73
1764750829.7779682,1.63
1764750829.784031,1.69
1764750829.790394,1.67
1764750829.7965372,1.5
1764750829.8028538,1.55
1764750829.809061,1.56
1764750829.815378,1.51
1764750829.821565,1.54
1764750829.827893,1.49
1764750829.8341172,1.52
1764750829.840468,1.56
1764750829.846688,1.5
1764750829.852937,1.55
1764750829.8591201,1.57
1764750829.865577,1.51
1764750829.8717382,1.54
1764750829.877957,1.54
1764750829.8840718,1.52
1764750829.89051,1.64
1764750829.896705,1.89
1764750829.90282,2.63
1764750829.908967,3.12
1764750829.915379,2.92
1764750829.921569,2.13
1764750829.9278212,1.07
1764750829.934031,1.23
1764750829.940462,1.71
1764750829.9466612,1.6
1764750829.95287,1.52
1764750829.959038,1.52
1764750829.965408,1.51
1764750829.971583,1.57
1764750829.977779,1.51
1764750829.98404,1.53
1764750829.990367,1.57
1764750829.996521,1.52
1764750830.0028002,1.56
1764750830.009061,1.53
1764750830.0154922,1.55
1764750830.021555,1.62
1764750830.027787,1.55
1764750830.034026,1.57
1764750830.040266,1.62
1764750830.0466151,1.54
1764750830.052821,1.61
1764750830.05908,1.63
1764750830.0652769,1.59
1764750830.071648,1.64
1764750830.077842,1.6
1764750830.083955,1.64
1764750830.090272,1.69
1764750830.096629,1.62
1764750830.102783,1.69
1764750830.109057,1.69
1764750830.115317,1.67
1764750830.12152,1.74
1764750830.127785,1.68
1764750830.133982,1.68
1764750830.1403,1.74
1764750830.1464498,1.7
1764750830.152766,1.73
1764750830.159071,1.71
1764750830.165238,1.67
1764750830.171509,1.72
1764750830.17775,1.62
1764750830.184054,1.63
1764750830.190259,1.67
1764750830.1964679,1.55
1764750830.202901,1.58
1764750830.209072,1.58
1764750830.215203,1.52
1764750830.221484,1.58
1764750830.227807,1.52
1764750830.233968,1.53
1764750830.240299,1.58
1764750830.246521,1.51
1764750830.252737,1.56
1764750830.258959,1.57
1764750830.265228,1.53
1764750830.27164,1.6
1764750830.277778,1.54
1764750830.283963,1.54
1764750830.290464,1.61
1764750830.2966132,1.55
1764750830.3027709,1.6
1764750830.309022,1.58
1764750830.31528,1.54
1764750830.3215292,1.62
1764750830.328059,1.56
1764750830.334045,1.55
1764750830.3402848,1.6
1764750830.346547,1.54
1764750830.352725,1.59
1764750830.358976,1.59
1764750830.365216,1.55
1764750830.371507,1.6
1764750830.377728,1.54
1764750830.383948,1.55
1764750830.3902059,1.59
1764750830.3964422,1.52
1764750830.402941,1.55
1764750830.4089768,1.55
1764750830.4151511,1.53
1764750830.4214349,1.58
1764750830.427843,1.55
1764750830.433919,1.56
1764750830.440174,1.6
1764750830.446487,1.52
1764750830.452746,1.56
1764750830.458923,1.56
1764750830.465145,1.55
1764750830.4714081,1.62
1764750830.477778,1.54
1764750830.483927,1.53
1764750830.490218,1.59
1764750830.496455,1.55
1764750830.502804,1.57
1764750830.508964,1.57
1764750830.53244,1.54
1764750830.5325499,1.61
1764750830.532632,1.56
1764750830.5384161,1.58
1764750830.549075,1.66
1764750830.573277,1.65
1764750830.57632,1.7
1764750830.581323,1.72
1764750830.5815098,1.73
1764750830.5815942,1.76
1764750830.5816672,1.65
1764750830.583949,1.63
1764750830.590208,1.69
1764750830.597057,1.57
1764750830.6026099,1.52
1764750830.608938,1.53
1764750830.6151092,1.52
1764750830.621498,1.56
1764750830.627776,1.5
1764750830.633867,1.49
1764750830.6403258,1.56
1764750830.64661,1.51
1764750830.6527202,1.52
1764750830.658886,1.53
1764750830.665092,1.53
1764750830.671359,1.6
1764750830.677715,1.52
1764750830.683948,1.51
1764750830.690343,1.6
1764750830.696339,1.72
1764750830.702583,2.28
1764750830.708933,3.0
1764750830.715084,3.01
1764750830.7214332,2.58
1764750830.7277482,1.39
1764750830.733883,1.05
1764750830.740164,1.58
1764750830.746443,1.66
1764750830.7526422,1.55
1764750830.7588868,1.49
1764750830.765174,1.5
1764750830.7715452,1.58
1764750830.777718,1.52
1764750830.7838342,1.53
1764750830.7901309,1.57
1764750830.79646,1.49
1764750830.8026361,1.54
1764750830.8088572,1.57
1764750830.8151412,1.53
1764750830.821451,1.58
1764750830.827712,1.55
1764750830.833884,1.57
1764750830.840197,1.62
1764750830.846338,1.54
1764750830.852575,1.6
1764750830.85888,1.61
1764750830.865104,1.57
1764750830.871438,1.66
1764750830.877671,1.62
1764750830.8839629,1.62
1764750830.890242,1.68
1764750830.8963258,1.64
1764750830.902561,1.71
1764750830.908855,1.69
1764750830.915018,1.64
1764750830.921349,1.75
1764750830.92765,1.69
1764750830.933833,1.67
1764750830.940143,1.74
1764750830.946273,1.68
1764750830.952588,1.74
1764750830.958912,1.72
1764750830.965009,1.66
1764750830.9713259,1.72
1764750830.977739,1.66
1764750830.983886,1.65
1764750830.990004,1.67
1764750830.9963431,1.56
1764750831.0025442,1.58
1764750831.008821,1.56
1764750831.015,1.52
1764750831.0213618,1.58
1764750831.0276322,1.52
1764750831.0339541,1.52
1764750831.040118,1.56
1764750831.046304,1.49
1764750831.052512,1.55
1764750831.058857,1.54
1764750831.0650098,1.51
1764750831.071394,1.59
1764750831.07763,1.55
1764750831.083989,1.55
1764750831.0900512,1.6
1764750831.096389,1.53
1764750831.102562,1.59
1764750831.10881,1.56
1764750831.115006,1.5
1764750831.121237,1.59
1764750831.12759,1.56
1764750831.1339068,1.56
1764750831.1400378,1.6
1764750831.146294,1.52
1764750831.152546,1.56
1764750831.158835,1.59
1764750831.164972,1.52
1764750831.1714282,1.56
1764750831.17761,1.55
1764750831.183805,1.54
1764750831.1900318,1.59
1764750831.196256,1.51
1764750831.2024949,1.53
1764750831.208749,1.53
1764750831.214936,1.51
1764750831.221279,1.6
1764750831.227558,1.52
1764750831.233829,1.51
1764750831.240018,1.56
1764750831.246374,1.53
1764750831.2525811,1.57
1764750831.2589078,1.54
1764750831.26502,1.48
1764750831.271351,1.57
1764750831.277531,1.54
1764750831.2837288,1.52
1764750831.2900312,1.56
1764750831.296296,1.5
1764750831.302475,1.54
1764750831.3087769,1.56
1764750831.314923,1.53
1764750831.32127,1.57
1764750831.3276632,1.52
1764750831.333737,1.55
1764750831.34004,1.63
1764750831.346261,1.61
1764750831.3524868,1.71
1764750831.358752,1.71
1764750831.364924,1.63
1764750831.371264,1.68
1764750831.377461,1.58
1764750831.38379,1.6
1764750831.389982,1.6
1764750831.396199,1.45
1764750831.402464,1.48
1764750831.408731,1.54
1764750831.414871,1.48
1764750831.4212532,1.52
1764750831.4274821,1.48
1764750831.433759,1.48
1764750831.440043,1.53
1764750831.4462762,1.49
1764750831.4524758,1.52
1764750831.458719,1.52
1764750831.464878,1.47
1764750831.471318,1.53
1764750831.4774468,1.48
1764750831.4837272,1.56
1764750831.4899971,1.87
1764750831.4962828,2.42
1764750831.5024152,3.02
1764750831.508805,2.96
1764750831.514868,2.18
1764750831.521324,1.2
1764750831.527482,1.13
1764750831.533744,1.55
1764750831.540061,1.64
1764750831.54638,1.43
1764750831.5524411,1.46
1764750831.5590541,1.5
1764750831.5649102,1.45
1764750831.5712588,1.5
1764750831.577471,1.45
1764750831.5837052,1.47
1764750831.589936,1.52
1764750831.59617,1.48
1764750831.602396,1.5
1764750831.608821,1.51
1764750831.614902,1.48
1764750831.6211798,1.53
1764750831.62743,1.5
1764750831.6336708,1.52
1764750831.6398988,1.57
1764750831.646233,1.5
1764750831.652427,1.55
1764750831.658684,1.56
1764750831.664861,1.52
1764750831.67127,1.62
1764750831.6774552,1.55
1764750831.6836932,1.56
1764750831.689939,1.65
1764750831.696288,1.58
1764750831.702642,1.61
1764750831.708731,1.65
1764750831.715019,1.6
1764750831.721178,1.66
1764750831.7275698,1.64
1764750831.733726,1.61
1764750831.739985,1.69
1764750831.746302,1.63
1764750831.752456,1.66
1764750831.758955,1.64
1764750831.764918,1.59
1764750831.7712939,1.68
1764750831.7774541,1.58
1764750831.7837849,1.53
1764750831.790057,1.6
1764750831.796304,1.52
1764750831.802481,1.51
1764750831.8086789,1.53
1764750831.814914,1.48
1764750831.821301,1.52
1764750831.827435,1.48
1764750831.8337762,1.48
1764750831.840238,1.53
1764750831.8462121,1.48
1764750831.852431,1.5
1764750831.858648,1.52
1764750831.8650281,1.5
1764750831.871243,1.56
1764750831.877456,1.51
1764750831.8837461,1.49
1764750831.890033,1.57
1764750831.896107,1.52
1764750831.9024398,1.55
1764750831.9087958,1.55
1764750831.914858,1.5
1764750831.921201,1.58
1764750831.92748,1.54
1764750831.933641,1.51
1764750831.940353,1.57
1764750831.946271,1.53
1764750831.952375,1.56
1764750831.958751,1.54
1764750831.964844,1.49
1764750831.9710588,1.55
1764750831.977452,1.52
1764750831.98353,1.54
1764750831.989832,1.58
1764750831.996673,1.5
1764750832.002443,1.54
1764750832.0087512,1.55
1764750832.01481,1.52
1764750832.021148,1.57
1764750832.027393,1.52
1764750832.033688,1.52
1764750832.039982,1.57
1764750832.046313,1.51
1764750832.052365,1.56
1764750832.058985,1.6
1764750832.098036,1.62
1764750832.1050081,1.76
1764750832.105998,1.7
1764750832.133576,1.66
1764750832.133686,1.72
1764750832.133769,1.59
1764750832.1338491,1.64
1764750832.142626,1.6
1764750832.142712,1.49
1764750832.1427772,1.55
1764750832.142844,1.49
1764750832.142956,1.46
1764750832.143054,1.53
1764750832.14609,1.47
1764750832.153416,1.51
1764750832.159263,1.54
1764750832.165929,1.47
1764750832.171051,1.54
1764750832.1773272,1.54
1764750832.183872,1.51
1764750832.189861,1.53
1764750832.19606,1.47
1764750832.202261,1.6
1764750832.2087119,1.74
1764750832.214848,2.17
1764750832.221107,2.99
1764750832.227391,3.04
1764750832.233566,2.5
1764750832.239937,1.45
1764750832.2461598,1.02
1764750832.252346,1.52
1764750832.2586958,1.64
1764750832.264886,1.46
1764750832.271028,1.5
1764750832.277288,1.51
1764750832.283547,1.48
1764750832.2898629,1.52
1764750832.295993,1.47
1764750832.302332,1.52
1764750832.309078,1.54
1764750832.3147252,1.46
1764750832.3210828,1.55
1764750832.327352,1.53
1764750832.333601,1.52
1764750832.339901,1.59
1764750832.3461099,1.53
1764750832.352297,1.57
1764750832.358641,1.58
1764750832.364714,1.53
1764750832.371083,1.6
1764750832.377304,1.58
1764750832.38357,1.58
1764750832.389867,1.64
1764750832.3960938,1.59
1764750832.4023092,1.64
1764750832.408621,1.64
1764750832.4147651,1.58
1764750832.421063,1.69
1764750832.4272451,1.69
1764750832.4334972,1.64
1764750832.4398148,1.69
1764750832.446069,1.65
1764750832.452283,1.67
1764750832.4586089,1.7
1764750832.464837,1.66
1764750832.4710798,1.7
1764750832.4774258,1.66
1764750832.483587,1.65
1764750832.489825,1.7
1764750832.4960299,1.61
1764750832.5022368,1.62
1764750832.508906,1.59
1764750832.514718,1.52
1764750832.5210292,1.59
1764750832.527414,1.55
1764750832.533638,1.52
1764750832.539862,1.56
1764750832.545974,1.5
1764750832.5522408,1.54
1764750832.5589278,1.57
1764750832.564808,1.51
1764750832.570952,1.56
1764750832.57734,1.53
1764750832.5834959,1.53
1764750832.589777,1.59
1764750832.596019,1.54
1764750832.60234,1.58
1764750832.608682,1.6
1764750832.614888,1.53
1764750832.6210198,1.59
1764750832.6277661,1.58
1764750832.6335318,1.57
1764750832.6397738,1.62
1764750832.646029,1.54
1764750832.65228,1.6
1764750832.658846,1.62
1764750832.664734,1.53
1764750832.67116,1.59
1764750832.677273,1.59
1764750832.6834729,1.56
1764750832.689704,1.59
1764750832.69593,1.53
1764750832.7022212,1.59
1764750832.7085829,1.58
1764750832.714693,1.5
1764750832.721001,1.59
1764750832.727191,1.59
1764750832.733485,1.54
1764750832.739725,1.57
1764750832.745928,1.52
1764750832.752314,1.58
1764750832.758498,1.59
1764750832.764715,1.54
1764750832.771122,1.61
1764750832.77728,1.58
1764750832.783447,1.61
1764750832.7896872,1.73
1764750832.796028,1.69
1764750832.802218,1.75
1764750832.808565,1.76
1764750832.814713,1.66
1764750832.820967,1.7
1764750832.827182,1.66
1764750832.833442,1.63
1764750832.8396642,1.6
1764750832.845936,1.5
1764750832.852164,1.56
1764750832.858724,1.58
1764750832.864674,1.47
1764750832.870854,1.56
1764750832.877239,1.55
1764750832.8834748,1.51
1764750832.889719,1.56
1764750832.895833,1.52
1764750832.902195,1.56
1764750832.908641,1.57
1764750832.914745,1.52
1764750832.92089,1.58
1764750832.927209,1.55
1764750832.933409,1.6
1764750832.939712,1.92
1764750832.9459012,2.51
1764750832.952217,3.1
1764750832.958553,3.02
1764750832.964747,2.18
1764750832.9708989,1.15
1764750832.977186,1.21
1764750832.9834728,1.67
1764750832.989677,1.69
1764750832.9959118,1.45
1764750833.002198,1.5
1764750833.00859,1.57
1764750833.014715,1.49
1764750833.0208929,1.52
1764750833.027219,1.54
1764750833.033473,1.53
1764750833.039639,1.56
1764750833.0459101,1.49
1764750833.052198,1.55
1764750833.058939,1.6
1764750833.064697,1.53
1764750833.07091,1.58
1764750833.07718,1.57
1764750833.0833988,1.55
1764750833.0896409,1.62
1764750833.095832,1.56
1764750833.102263,1.61
1764750833.108639,1.64
1764750833.114673,1.56
1764750833.12093,1.64
1764750833.127171,1.64
1764750833.1334898,1.62
1764750833.1395462,1.71
1764750833.1459541,1.65
1764750833.1522188,1.66
1764750833.158779,1.69
1764750833.164653,1.65
1764750833.170966,1.72
1764750833.1772978,1.69
1764750833.183437,1.68
1764750833.1896698,1.75
1764750833.195895,1.67
1764750833.2021902,1.7
1764750833.20841,1.71
1764750833.214577,1.62
1764750833.220896,1.7
1764750833.227089,1.66
1764750833.2333372,1.58
1764750833.2396412,1.61
1764750833.245965,1.53
1764750833.252109,1.58
1764750833.258355,1.6
1764750833.264655,1.51
1764750833.270856,1.55
1764750833.277162,1.53
1764750833.28335,1.51
1764750833.289634,1.59
1764750833.295813,1.54
1764750833.302172,1.55
1764750833.308395,1.58
1764750833.314551,1.53
1764750833.320838,1.61
1764750833.327119,1.6
1764750833.333348,1.55
1764750833.3396292,1.62
1764750833.3458471,1.56
1764750833.352082,1.57
1764750833.3584378,1.62
1764750833.3645928,1.55
1764750833.370744,1.61
1764750833.3770921,1.61
1764750833.383331,1.56
1764750833.389586,1.61
1764750833.395784,1.54
1764750833.4021041,1.57
1764750833.408509,1.61
1764750833.414609,1.53
1764750833.4207628,1.58
1764750833.427097,1.56
1764750833.43332,1.54
1764750833.439592,1.62
1764750833.445802,1.55
1764750833.4520938,1.54
1764750833.4583712,1.59
1764750833.4646652,1.53
1764750833.500907,1.59
1764750833.5046122,1.54
1764750833.520166,1.53
1764750833.531265,1.61
1764750833.5458791,1.55
1764750833.546091,1.56
1764750833.5461838,1.59
1764750833.5462651,1.54
1764750833.546346,1.64
1764750833.5464242,1.68
1764750833.5465028,1.67
1764750833.546578,1.73
1764750833.546655,1.74
1764750833.5520372,1.78
1764750833.560362,1.73
1764750833.564539,1.61
1764750833.5710988,1.69
1764750833.577261,1.65
1764750833.58345,1.52
1764750833.58956,1.55
1764750833.595795,1.5
1764750833.60203,1.52
1764750833.608789,1.52
1764750833.614683,1.48
1764750833.620766,1.56
1764750833.627029,1.53
1764750833.633248,1.5
1764750833.639513,1.56
1764750833.645795,1.49
1764750833.652075,1.54
1764750833.658444,1.59
1764750833.664594,1.49
1764750833.6707609,1.54
1764750833.676992,1.62
1764750833.683296,1.85
1764750833.689547,2.62
1764750833.695764,3.08
1764750833.702147,2.92
1764750833.7083762,2.11
1764750833.7144809,1.03
1764750833.720723,1.28
1764750833.727144,1.72
1764750833.733205,1.61
1764750833.7398489,1.51
1764750833.745802,1.47
1764750833.752008,1.52
1764750833.758383,1.56
1764750833.764477,1.5
1764750833.7707891,1.55
1764750833.777048,1.53
1764750833.783275,1.51
1764750833.789543,1.6
1764750833.795786,1.53
1764750833.801975,1.53
1764750833.808267,1.57
1764750833.8144572,1.53
1764750833.82067,1.6
1764750833.826994,1.58
1764750833.8333519,1.54
1764750833.8395,1.63
1764750833.845736,1.57
1764750833.852104,1.6
1764750833.858334,1.65
1764750833.8644512,1.61
1764750833.870681,1.65
1764750833.8769522,1.65
1764750833.883292,1.63
1764750833.889499,1.71
1764750833.895726,1.65
1764750833.901949,1.67
1764750833.9082382,1.72
1764750833.914402,1.66
1764750833.920741,1.72
1764750833.926947,1.71
1764750833.93328,1.65
1764750833.939511,1.74
1764750833.94568,1.7
1764750833.9519382,1.69
1764750833.9582562,1.68
1764750833.964486,1.63
1764750833.97071,1.68
1764750833.977022,1.61
1764750833.983247,1.55
1764750833.9895098,1.61
1764750833.99574,1.54
1764750834.00201,1.57
1764750834.00826,1.59
1764750834.014407,1.51
1764750834.020728,1.57
1764750834.0269701,1.54
1764750834.033195,1.52
1764750834.039406,1.59
1764750834.045689,1.53
1764750834.052076,1.54
1764750834.058173,1.6
1764750834.0644019,1.55
1764750834.070612,1.58
1764750834.0769038,1.58
1764750834.08318,1.55
1764750834.0894132,1.63
1764750834.095705,1.56
1764750834.1019,1.55
1764750834.108169,1.6
1764750834.114381,1.54
1764750834.1208131,1.61
1764750834.126998,1.58
1764750834.1332018,1.54
1764750834.139495,1.64
1764750834.145691,1.57
1764750834.15188,1.57
1764750834.158392,1.6
1764750834.164403,1.54
1764750834.170659,1.59
1764750834.176825,1.58
1764750834.183213,1.54
1764750834.1894588,1.58
1764750834.1956322,1.52
1764750834.20194,1.56
1764750834.2082748,1.61
1764750834.214388,1.53
1764750834.2206342,1.58
1764750834.22686,1.57
1764750834.233197,1.53
1764750834.239456,1.59
1764750834.2456472,1.56
1764750834.251852,1.55
1764750834.258173,1.58
1764750834.264362,1.52
1764750834.270612,1.58
1764750834.276874,1.59
1764750834.2831051,1.56
1764750834.2894819,1.61
1764750834.295653,1.56
1764750834.301846,1.64
1764750834.308254,1.73
1764750834.314351,1.65
1764750834.3206248,1.74
1764750834.326912,1.77
1764750834.333153,1.67
1764750834.339367,1.69
1764750834.345597,1.62
1764750834.352,1.65
1764750834.358138,1.6
1764750834.3643909,1.47
1764750834.370592,1.54
1764750834.3767931,1.57
1764750834.3830771,1.51
1764750834.389363,1.55
1764750834.395544,1.51
1764750834.401752,1.51
1764750834.408062,1.57
1764750834.414261,1.52
1764750834.4205709,1.53
1764750834.426827,1.55
1764750834.4331079,1.53
1764750834.4394062,1.56
1764750834.445581,1.5
1764750834.451818,1.6
1764750834.458061,1.9
1764750834.464368,2.47
1764750834.4705632,3.08
1764750834.4767418,2.99
1764750834.483083,2.19
1764750834.489343,1.16
1764750834.4956539,1.16
1764750834.501913,1.64
1764750834.50813,1.69
1764750834.5142999,1.46
1764750834.520629,1.5
1764750834.5268,1.55
1764750834.533174,1.52
1764750834.5394151,1.57
1764750834.545567,1.5
1764750834.5517938,1.52
1764750834.5581188,1.58
1764750834.5642712,1.5
1764750834.5706072,1.54
1764750834.576854,1.57
1764750834.5830941,1.54
1764750834.589262,1.6
1764750834.595552,1.55
1764750834.601818,1.56
1764750834.60813,1.6
1764750834.614311,1.54
1764750834.620594,1.63
1764750834.626841,1.62
1764750834.6337888,1.59
1764750834.639395,1.66
1764750834.645633,1.62
1764750834.6518772,1.63
1764750834.6582668,1.69
1764750834.6729422,1.65
1764750834.7016551,1.69
1764750834.712781,1.66
1764750834.7265239,1.66
1764750834.728533,1.75
1764750834.7286131,1.68
1764750834.728666,1.67
1764750834.728988,1.73
1764750834.7290492,1.66
1764750834.7291,1.73
1764750834.729148,1.72
1764750834.7338161,1.64
1764750834.743359,1.66
1764750834.745573,1.61
1764750834.751847,1.63
1764750834.764541,1.62
1764750834.764656,1.52
1764750834.770562,1.59
1764750834.776788,1.56
1764750834.783078,1.5
1764750834.789373,1.57
1764750834.795601,1.52
1764750834.802038,1.54
1764750834.808071,1.57
1764750834.8143601,1.52
1764750834.820538,1.57
1764750834.826855,1.56
1764750834.83312,1.52
1764750834.8393211,1.61
1764750834.845572,1.55
1764750834.851789,1.57
1764750834.858021,1.62
1764750834.864314,1.53
1764750834.870529,1.6
1764750834.876794,1.61
1764750834.8830552,1.55
1764750834.8892648,1.58
1764750834.895492,1.53
1764750834.901716,1.57
1764750834.9081368,1.63
1764750834.9143019,1.53
1764750834.920528,1.58
1764750834.926753,1.58
1764750834.933069,1.53
1764750834.939306,1.62
1764750834.945485,1.57
1764750834.951786,1.55
1764750834.9580019,1.6
1764750834.964224,1.53
1764750834.9705338,1.57
1764750834.9768162,1.58
1764750834.983089,1.55
1764750834.9892979,1.58
1764750834.9955258,1.52
1764750835.002028,1.55
1764750835.008047,1.6
1764750835.014262,1.52
1764750835.020632,1.58
1764750835.026817,1.58
1764750835.033021,1.51
1764750835.0392761,1.59
1764750835.045564,1.58
1764750835.051788,1.56
1764750835.058016,1.59
1764750835.064183,1.52
1764750835.070488,1.59
1764750835.076673,1.59
1764750835.082966,1.53
1764750835.089262,1.59
1764750835.095482,1.61
1764750835.101724,1.68
1764750835.108039,1.74
1764750835.114261,1.64
1764750835.120545,1.69
1764750835.126745,1.7
1764750835.133068,1.66
1764750835.1391401,1.67
1764750835.1454751,1.62
1764750835.1518028,1.55
1764750835.1580539,1.54
1764750835.164224,1.48
1764750835.170488,1.53
1764750835.176703,1.53
1764750835.1830132,1.48
1764750835.189228,1.55
1764750835.195395,1.5
1764750835.2017689,1.52
1764750835.208042,1.56
1764750835.2142441,1.51
1764750835.2204669,1.57
1764750835.2267678,1.55
1764750835.233063,1.48
1764750835.2393138,1.54
1764750835.24547,1.57
1764750835.251703,1.84
1764750835.2580988,2.59
1764750835.264283,3.06
1764750835.270499,2.94
1764750835.276695,2.14
1764750835.2830029,1.06
1764750835.289247,1.27
1764750835.2954628,1.67
1764750835.3016691,1.61
1764750835.307938,1.52
1764750835.314239,1.48
1764750835.3205419,1.56
1764750835.3267689,1.55
1764750835.3330078,1.49
1764750835.339165,1.56
1764750835.345545,1.49
1764750835.351655,1.52
1764750835.35797,1.6
1764750835.3641548,1.52
1764750835.37043,1.55
1764750835.3766432,1.56
1764750835.3829389,1.54
1764750835.389208,1.61
1764750835.395396,1.56
1764750835.401747,1.56
1764750835.4080489,1.62
1764750835.414219,1.55
1764750835.4206321,1.63
1764750835.426698,1.62
1764750835.432977,1.56
1764750835.439184,1.66
1764750835.445434,1.64
1764750835.4516768,1.63
1764750835.458066,1.7
1764750835.464194,1.63
1764750835.470398,1.68
1764750835.476682,1.69
1764750835.482993,1.66
1764750835.489163,1.73
1764750835.4954271,1.66
1764750835.501652,1.68
1764750835.507953,1.74
1764750835.5142772,1.64
1764750835.520494,1.68
1764750835.526816,1.71
1764750835.532924,1.63
1764750835.5391731,1.65
1764750835.5454988,1.59
1764750835.551925,1.58
1764750835.5579891,1.61
1764750835.564285,1.52
1764750835.570583,1.57
1764750835.576705,1.56
1764750835.582968,1.49
1764750835.5892239,1.56
1764750835.595386,1.53
1764750835.6015859,1.52
1764750835.607958,1.55
1764750835.614166,1.52
1764750835.62024,1.58
1764750835.6266181,1.58
1764750835.63287,1.52
1764750835.63913,1.6
1764750835.645447,1.56
1764750835.651663,1.54
1764750835.657877,1.59
1764750835.664147,1.53
1764750835.670579,1.59
1764750835.676723,1.58
1764750835.6829891,1.53
1764750835.689218,1.61
1764750835.695356,1.56
1764750835.701662,1.52
1764750835.7079418,1.58
1764750835.714106,1.54
1764750835.7204092,1.59
1764750835.726563,1.58
1764750835.732963,1.51
1764750835.7392519,1.57
1764750835.745334,1.53
1764750835.751612,1.53
1764750835.757946,1.6
1764750835.764179,1.5
1764750835.770499,1.52
1764750835.7767382,1.57
1764750835.7828999,1.53
1764750835.7891462,1.58
1764750835.795416,1.52
1764750835.801721,1.53
1764750835.8079202,1.6
1764750835.814184,1.51
1764750835.820531,1.57
1764750835.8266869,1.59
1764750835.8328729,1.52
1764750835.839232,1.58
1764750835.845391,1.54
1764750835.851756,1.52
1764750835.857952,1.63
1764750835.8640718,1.64
1764750835.8705258,1.72
1764750835.876686,1.75
1764750835.882901,1.66
1764750835.8891761,1.74
1764750835.895366,1.66
1764750835.901624,1.61
1764750835.907988,1.66
1764750835.914123,1.52
1764750835.9204311,1.52
1764750835.9266229,1.56
1764750835.932808,1.51
1764750835.9391732,1.56
1764750835.9453619,1.5
1764750835.951541,1.5
1764750835.957918,1.57
1764750835.964056,1.48
1764750835.970379,1.54
1764750835.9764879,1.56
1764750835.982791,1.51
1764750835.989162,1.59
1764750835.995301,1.52
1764750836.001546,1.49
1764750836.0078158,1.67
1764750836.014127,1.91
1764750836.0204191,2.63
1764750836.026581,3.11
1764750836.032931,2.87
1764750836.03912,2.02
1764750836.0453062,1.04
1764750836.0514932,1.26
1764750836.057822,1.72
1764750836.064079,1.57
1764750836.070596,1.48
1764750836.076582,1.52
1764750836.0828521,1.5
1764750836.089216,1.54
1764750836.095209,1.49
1764750836.1015072,1.5
1764750836.1078022,1.58
1764750836.114042,1.51
1764750836.120461,1.53
1764750836.126522,1.55
1764750836.13283,1.52
1764750836.139209,1.59
1764750836.145251,1.53
1764750836.151477,1.53
1764750836.157763,1.63
1764750836.164007,1.56
1764750836.170296,1.59
1764750836.176762,1.61
1764750836.1827672,1.56
1764750836.1891258,1.64
1764750836.195246,1.63
1764750836.201524,1.63
1764750836.207844,1.68
1764750836.214033,1.63
1764750836.220635,1.69
1764750836.226613,1.7
1764750836.2327502,1.63
1764750836.239237,1.71
1764750836.245149,1.69
1764750836.251466,1.66
1764750836.2577229,1.74
1764750836.264111,1.66
1764750836.2702441,1.7
1764750836.276492,1.73
1764750836.282668,1.64
1764750836.289087,1.7
1764750836.2952409,1.66
1764750836.301522,1.61
1764750836.3076952,1.63
1764750836.314083,1.55
1764750836.32025,1.57
1764750836.326426,1.59
1764750836.33279,1.53
1764750836.339401,1.55
1764750836.355105,1.5
1764750836.366961,1.52
1764750836.393645,1.58
1764750836.406414,1.5
1764750836.4110432,1.53
1764750836.416831,1.57
1764750836.420383,1.5
1764750836.420575,1.58
1764750836.420674,1.57
1764750836.4208891,1.54
1764750836.4212182,1.58
1764750836.421325,1.52
1764750836.4214132,1.59
1764750836.42644,1.59
1764750836.435561,1.52
1764750836.439449,1.6
1764750836.4451442,1.55
1764750836.451412,1.55
1764750836.457798,1.6
1764750836.464007,1.52
1764750836.470252,1.55
1764750836.4764988,1.57
1764750836.48274,1.52
1764750836.4891021,1.59
1764750836.495264,1.55
1764750836.50174,1.54
1764750836.507821,1.58
1764750836.5140831,1.52
1764750836.5202649,1.54
1764750836.5264351,1.55
1764750836.532682,1.51
1764750836.539078,1.6
1764750836.545175,1.56
1764750836.5514822,1.51
1764750836.557686,1.57
1764750836.5639071,1.52
1764750836.570126,1.55
1764750836.576417,1.56
1764750836.582746,1.51
1764750836.588973,1.58
1764750836.5953019,1.55
1764750836.6014552,1.52
1764750836.607757,1.6
1764750836.6140301,1.54
1764750836.6202319,1.57
1764750836.626367,1.63
1764750836.6325881,1.66
1764750836.639025,1.75
1764750836.645327,1.67
1764750836.651438,1.67
1764750836.6576362,1.74
1764750836.663928,1.59
1764750836.670132,1.64
1764750836.676325,1.61
1764750836.682604,1.47
1764750836.689099,1.54
1764750836.6951182,1.52
1764750836.701437,1.47
1764750836.7076008,1.53
1764750836.713907,1.5
1764750836.7200902,1.54
1764750836.726332,1.55
1764750836.732693,1.48
1764750836.7389681,1.56
1764750836.745135,1.53
1764750836.751364,1.5
1764750836.757646,1.56
1764750836.763864,1.47
1764750836.7701812,1.56
1764750836.776424,1.78
1764750836.782728,2.3
1764750836.789278,3.05
1764750836.795221,3.02
1764750836.801383,2.36
1764750836.807601,1.3
1764750836.81388,1.08
1764750836.820142,1.6
1764750836.826404,1.69
1764750836.83263,1.47
1764750836.8389518,1.49
1764750836.8451142,1.52
1764750836.8513448,1.52
1764750836.8576498,1.55
1764750836.863862,1.47
1764750836.870175,1.52
1764750836.8763242,1.56
1764750836.882638,1.5
1764750836.889215,1.56
1764750836.895177,1.54
1764750836.90132,1.53
1764750836.907784,1.59
1764750836.913864,1.52
1764750836.920099,1.55
1764750836.9263942,1.58
1764750836.9326122,1.54
1764750836.938935,1.62
1764750836.945256,1.58
1764750836.951325,1.56
1764750836.9576662,1.65
1764750836.9638772,1.59
1764750836.9701152,1.62
1764750836.976298,1.67
1764750836.982677,1.61
1764750836.989287,1.67
1764750836.995123,1.67
1764750837.001451,1.66
1764750837.007612,1.73
1764750837.013818,1.65
1764750837.020183,1.68
1764750837.02623,1.73
1764750837.032622,1.65
1764750837.038954,1.7
1764750837.04512,1.67
1764750837.051378,1.64
1764750837.057593,1.69
1764750837.0638819,1.59
1764750837.070067,1.6
1764750837.0762181,1.59
1764750837.0825129,1.53
1764750837.0891619,1.59
1764750837.095078,1.53
1764750837.1013818,1.51
1764750837.107636,1.55
1764750837.113811,1.47
1764750837.1201348,1.54
1764750837.126276,1.59
1764750837.1325371,1.5
1764750837.138834,1.54
1764750837.1450539,1.53
1764750837.151336,1.52
1764750837.1575391,1.6
1764750837.163769,1.52
1764750837.170068,1.54
1764750837.176235,1.61
1764750837.182517,1.55
1764750837.189353,1.58
1764750837.1950269,1.54
1764750837.201337,1.56
1764750837.207596,1.65
1764750837.21388,1.53
1764750837.220052,1.54
1764750837.22623,1.6
1764750837.232509,1.55
1764750837.238991,1.58
1764750837.245033,1.52
1764750837.25123,1.52
1764750837.257495,1.61
1764750837.263752,1.53
1764750837.27001,1.54
1764750837.276153,1.56
1764750837.282654,1.51
1764750837.289182,1.59
1764750837.295014,1.52
1764750837.301217,1.5
1764750837.30748,1.6
1764750837.3137438,1.52
1764750837.320022,1.52
1764750837.326244,1.55
1764750837.332492,1.5
1764750837.338916,1.57
1764750837.3450408,1.56
1764750837.351228,1.52
1764750837.3575108,1.57
1764750837.363821,1.52
1764750837.3700411,1.56
1764750837.376207,1.61
1764750837.382477,1.62
1764750837.388978,1.74
1764750837.395048,1.67
1764750837.4012768,1.64
1764750837.4075022,1.7
1764750837.413734,1.59
1764750837.419965,1.61
1764750837.426167,1.57
1764750837.4324749,1.44
1764750837.439028,1.52
1764750837.4449668,1.52
1764750837.4511738,1.44
1764750837.457401,1.52
1764750837.463735,1.48
1764750837.469962,1.49
1764750837.476196,1.5
1764750837.482507,1.47
1764750837.48876,1.54
1764750837.495018,1.52
1764750837.501193,1.49
1764750837.507475,1.56
1764750837.513736,1.48
1764750837.519999,1.57
1764750837.526158,1.84
1764750837.532518,2.37
1764750837.5388238,3.02
1764750837.544985,2.97
1764750837.551151,2.3
1764750837.557407,1.3
1764750837.56381,1.13
1764750837.569945,1.54
1764750837.576223,1.58
1764750837.5824158,1.43
1764750837.588709,1.53
1764750837.5949912,1.52
1764750837.601164,1.45
1764750837.607489,1.52
1764750837.6137311,1.5
1764750837.6199849,1.52
1764750837.6261818,1.53
1764750837.63242,1.47
1764750837.639052,1.54
1764750837.6452239,1.52
1764750837.651198,1.49
1764750837.6574368,1.58
1764750837.6637728,1.53
1764750837.670017,1.53
1764750837.676241,1.58
1764750837.682414,1.53
1764750837.688979,1.59
1764750837.694932,1.56
1764750837.701178,1.56
1764750837.707437,1.64
1764750837.71364,1.57
1764750837.720055,1.58
1764750837.7262669,1.64
1764750837.732453,1.6
1764750837.73904,1.67
1764750837.744888,1.65
1764750837.751161,1.64
1764750837.757419,1.7
1764750837.7636778,1.64
1764750837.769968,1.68
1764750837.776177,1.69
1764750837.7824671,1.63
1764750837.788718,1.69
1764750837.794985,1.65
1764750837.8012202,1.63
1764750837.826876,1.67
1764750837.83115,1.56
1764750837.839073,1.57
1764750837.839239,1.6
1764750837.8393369,1.52
1764750837.8634949,1.57
1764750837.863704,1.55
1764750837.8637938,1.5
1764750837.8638809,1.55
1764750837.863967,1.48
1764750837.870067,1.52
1764750837.876108,1.57
1764750837.882373,1.49
1764750837.889654,1.53
1764750837.8949618,1.53
1764750837.901275,1.48
1764750837.90741,1.6
1764750837.914015,1.55
1764750837.919987,1.53
1764750837.926163,1.57
1764750837.93239,1.54
1764750837.9386592,1.59
1764750837.945002,1.56
1764750837.951159,1.52
1764750837.957369,1.59
1764750837.963592,1.56
1764750837.969995,1.57
1764750837.9760818,1.59
1764750837.982322,1.52
1764750837.988606,1.57
1764750837.994956,1.55
1764750838.001178,1.54
1764750838.0073211,1.62
1764750838.013574,1.54
1764750838.0199769,1.55
1764750838.026099,1.59
1764750838.032352,1.52
1764750838.0386481,1.57
1764750838.0449438,1.55
1764750838.051062,1.54
1764750838.057321,1.59
1764750838.0635898,1.54
1764750838.069898,1.58
1764750838.076201,1.58
1764750838.08253,1.5
1764750838.088664,1.61
1764750838.094809,1.65
1764750838.101084,1.62
1764750838.107359,1.72
1764750838.113663,1.71
1764750838.119856,1.69
1764750838.126142,1.7
1764750838.132374,1.59
1764750838.138674,1.69
1764750838.144882,1.61
1764750838.151058,1.49
1764750838.157333,1.55
1764750838.163619,1.53
1764750838.169975,1.53
1764750838.1760871,1.53
1764750838.182373,1.5
1764750838.1886148,1.55
1764750838.1949928,1.53
1764750838.2010958,1.51
1764750838.207326,1.58
1764750838.213551,1.52
1764750838.219844,1.53
1764750838.226092,1.56
1764750838.232264,1.5
1764750838.238538,1.61
1764750838.244868,1.77
1764750838.251051,2.25
1764750838.2573519,3.02
1764750838.263517,3.05
1764750838.269824,2.57
1764750838.2760582,1.47
1764750838.282309,1.04
1764750838.288616,1.58
1764750838.294821,1.68
1764750838.3011599,1.49
1764750838.307343,1.53
1764750838.3136032,1.52
1764750838.319881,1.52
1764750838.326148,1.55
1764750838.3323898,1.48
1764750838.3386922,1.55
1764750838.344908,1.55
1764750838.351037,1.51
1764750838.3574772,1.58
1764750838.363635,1.53
1764750838.369835,1.53
1764750838.376212,1.58
1764750838.3824792,1.52
1764750838.388819,1.58
1764750838.394829,1.58
1764750838.4012978,1.55
1764750838.407546,1.61
1764750838.4135969,1.56
1764750838.419796,1.59
1764750838.4261172,1.65
1764750838.4323719,1.58
1764750838.438965,1.64
1764750838.4448261,1.67
1764750838.451045,1.63
1764750838.457333,1.69
1764750838.463558,1.63
1764750838.469743,1.68
1764750838.4760451,1.73
1764750838.482222,1.63
1764750838.4885938,1.68
1764750838.494791,1.73
1764750838.500997,1.68
1764750838.507185,1.72
1764750838.513505,1.66
1764750838.519756,1.67
1764750838.526022,1.68
1764750838.532303,1.6
1764750838.538595,1.62
1764750838.5448089,1.59
1764750838.551075,1.54
1764750838.557258,1.59
1764750838.563474,1.52
1764750838.569778,1.52
1764750838.57599,1.57
1764750838.5822852,1.51
1764750838.588663,1.55
1764750838.594777,1.55
1764750838.6010199,1.52
1764750838.607303,1.57
1764750838.6134841,1.53
1764750838.619762,1.55
1764750838.625977,1.59
1764750838.632216,1.53
1764750838.638597,1.6
1764750838.64474,1.59
1764750838.650971,1.54
1764750838.6571531,1.61
1764750838.663627,1.57
1764750838.669776,1.58
1764750838.6759849,1.61
1764750838.68222,1.54
1764750838.6885319,1.62
1764750838.694853,1.62
1764750838.70098,1.54
1764750838.707212,1.62
1764750838.713711,1.59
1764750838.719732,1.57
1764750838.725954,1.6
1764750838.732246,1.55
1764750838.738636,1.59
1764750838.744692,1.58
1764750838.751007,1.54
1764750838.7571971,1.59
1764750838.763463,1.55
1764750838.769675,1.56
1764750838.776021,1.61
1764750838.782224,1.54
1764750838.788533,1.56
1764750838.794711,1.59
1764750838.800908,1.55
1764750838.807122,1.6
1764750838.8134441,1.54
1764750838.8197289,1.56
1764750838.825991,1.62
1764750838.8323,1.52
1764750838.8385339,1.59
1764750838.844696,1.64
1764750838.851014,1.65
1764750838.8571699,1.77
1764750838.8634439,1.7
1764750838.869766,1.68
1764750838.875912,1.71
1764750838.882171,1.62
1764750838.888639,1.68
1764750838.894686,1.58
1764750838.900917,1.48
1764750838.90713,1.57
1764750838.913433,1.54
1764750838.919691,1.51
1764750838.9258602,1.55
1764750838.932149,1.48
1764750838.938425,1.53
1764750838.9447172,1.54
1764750838.9509609,1.49
1764750838.957124,1.57
1764750838.9635048,1.51
1764750838.969734,1.54
1764750838.9759748,1.6
1764750838.982213,1.49
1764750838.988681,1.6
1764750838.994721,1.76
1764750839.0010219,2.25
1764750839.007236,3.04
1764750839.0134668,3.06
1764750839.019663,2.53
1764750839.025961,1.42
1764750839.032115,1.02
1764750839.038451,1.58
1764750839.044662,1.69
1764750839.050911,1.48
1764750839.057141,1.52
1764750839.063392,1.5
1764750839.069644,1.5
1764750839.075839,1.54
1764750839.082241,1.49
1764750839.088615,1.52
1764750839.094663,1.52
1764750839.100917,1.5
1764750839.107161,1.57
1764750839.1134,1.52
1764750839.119714,1.52
1764750839.125839,1.59
1764750839.132119,1.53
1764750839.138473,1.56
1764750839.1448588,1.59
1764750839.1509252,1.56
1764750839.1572568,1.6
1764750839.1633549,1.58
1764750839.169683,1.59
1764750839.175881,1.65
1764750839.182192,1.59
1764750839.188422,1.66
1764750839.194669,1.64
1764750839.2008178,1.6
1764750839.207148,1.72
1764750839.2133708,1.67
1764750839.2196229,1.66
1764750839.2257679,1.72
1764750839.2320929,1.64
1764750839.238348,1.7
1764750839.2447412,1.72
1764750839.2509341,1.67
1764750839.2595918,1.72
1764750839.265763,1.67
1764750839.305651,1.65
1764750839.325124,1.68
1764750839.325197,1.6
1764750839.325245,1.63
1764750839.325291,1.57
1764750839.3253372,1.51
1764750839.325383,1.61
1764750839.325429,1.56
1764750839.3254762,1.52
1764750839.332008,1.55
1764750839.3321779,1.49
1764750839.3383548,1.54
1764750839.345637,1.54
1764750839.3509939,1.49
1764750839.357088,1.55
1764750839.363373,1.52
1764750839.369586,1.54
1764750839.37584,1.59
1764750839.3820732,1.52
1764750839.388279,1.55
1764750839.394619,1.55
1764750839.4007869,1.53
1764750839.40709,1.6
1764750839.413285,1.55
1764750839.419683,1.55
1764750839.425855,1.62
1764750839.4321122,1.52
1764750839.4383109,1.56
1764750839.444635,1.6
1764750839.450957,1.56
1764750839.4570749,1.59
1764750839.463254,1.53
1764750839.469582,1.52
1764750839.475803,1.59
1764750839.482074,1.53
1764750839.488317,1.55
1764750839.4946492,1.55
1764750839.500803,1.51
1764750839.5070238,1.59
1764750839.513298,1.53
1764750839.51954,1.52
1764750839.5258482,1.58
1764750839.532029,1.53
1764750839.538433,1.59
1764750839.544567,1.57
1764750839.550814,1.5
1764750839.557072,1.59
1764750839.563319,1.55
1764750839.569622,1.54
1764750839.575897,1.58
1764750839.582189,1.51
1764750839.5882502,1.57
1764750839.594477,1.57
1764750839.60081,1.51
1764750839.607059,1.58
1764750839.613214,1.55
1764750839.6195798,1.55
1764750839.625775,1.62
1764750839.6319559,1.63
1764750839.638231,1.73
1764750839.6444988,1.7
1764750839.650883,1.59
1764750839.656971,1.74
1764750839.6632059,1.65
1764750839.6695611,1.61
1764750839.6760168,1.64
1764750839.681961,1.51
1764750839.6882188,1.53
1764750839.694585,1.55
1764750839.700757,1.49
1764750839.706974,1.55
1764750839.7132092,1.52
1764750839.719651,1.52
1764750839.725754,1.54
1764750839.731945,1.49
1764750839.738274,1.55
1764750839.744534,1.55
1764750839.750786,1.49
1764750839.757035,1.59
1764750839.7633212,1.54
1764750839.769791,1.52
1764750839.7758222,1.67
1764750839.7820292,1.95
1764750839.788277,2.71
1764750839.794576,3.13
1764750839.800704,2.85
1764750839.806966,2.02
1764750839.813309,1.03
1764750839.81953,1.27
1764750839.825752,1.74
1764750839.8319209,1.55
1764750839.83821,1.48
1764750839.844479,1.56
1764750839.8507211,1.51
1764750839.856967,1.53
1764750839.863212,1.5
1764750839.869727,1.49
1764750839.8758569,1.55
1764750839.8820422,1.5
1764750839.888235,1.54
1764750839.8944771,1.53
1764750839.9007628,1.5
1764750839.906928,1.58
1764750839.913162,1.53
1764750839.919898,1.52
1764750839.9257731,1.6
1764750839.931963,1.54
1764750839.9381928,1.58
1764750839.9445062,1.59
1764750839.95072,1.55
1764750839.956911,1.64
1764750839.9632902,1.59
1764750839.969544,1.62
1764750839.975744,1.68
1764750839.982079,1.58
1764750839.9882472,1.67
1764750839.9945788,1.71
1764750840.000674,1.65
1764750840.007081,1.7
1764750840.013228,1.67
1764750840.020146,1.67
1764750840.025865,1.73
1764750840.031892,1.66
1764750840.038229,1.7
1764750840.0444129,1.72
1764750840.050761,1.65
1764750840.056878,1.7
1764750840.063225,1.63
1764750840.069571,1.58
1764750840.075705,1.61
1764750840.081981,1.56
1764750840.088398,1.57
1764750840.094419,1.55
1764750840.100718,1.5
1764750840.106931,1.59
1764750840.113235,1.53
1764750840.119532,1.48
1764750840.125775,1.54
1764750840.1319091,1.5
1764750840.138153,1.55
1764750840.144393,1.56
1764750840.150676,1.5
1764750840.1569269,1.58
1764750840.163334,1.54
1764750840.169962,1.53
1764750840.17568,1.61
1764750840.181994,1.55
1764750840.188208,1.56
1764750840.1943932,1.58
1764750840.200716,1.53
1764750840.2069252,1.59
1764750840.213256,1.55
1764750840.2195468,1.57
1764750840.225673,1.61
1764750840.2319272,1.51
1764750840.2381492,1.57
1764750840.2444968,1.6
1764750840.250634,1.54
1764750840.256811,1.59
1764750840.263218,1.54
1764750840.2698,1.53
1764750840.2756858,1.58
1764750840.282068,1.53
1764750840.288225,1.57
1764750840.294516,1.57
1764750840.30079,1.51
1764750840.30691,1.59
1764750840.3132002,1.55
1764750840.3203058,1.54
1764750840.325631,1.6
1764750840.332017,1.52
1764750840.338166,1.55
1764750840.344429,1.57
1764750840.350681,1.52
1764750840.356862,1.59
1764750840.363138,1.55
1764750840.369525,1.52
1764750840.3755672,1.58
1764750840.381852,1.52
1764750840.388138,1.56
1764750840.394342,1.59
1764750840.400813,1.52
1764750840.406821,1.58
1764750840.4131331,1.56
1764750840.419501,1.55
1764750840.425646,1.68
1764750840.431854,1.66
1764750840.438122,1.7
1764750840.444362,1.68
1764750840.450681,1.63
1764750840.456822,1.66
1764750840.4631512,1.64
1764750840.4696152,1.61
1764750840.47561,1.56
1764750840.481832,1.47
1764750840.488069,1.57
1764750840.49431,1.56
1764750840.500611,1.46
1764750840.5067961,1.55
1764750840.513111,1.54
1764750840.519567,1.48
1764750840.525621,1.56
1764750840.531883,1.52
1764750840.538131,1.54
1764750840.544346,1.55
1764750840.550741,1.52
1764750840.5568051,1.57
1764750840.563045,1.55
1764750840.5693812,1.62
1764750840.5755231,1.99
1764750840.581863,2.7
1764750840.588268,3.13
1764750840.594387,2.9
1764750840.6005929,1.92
1764750840.6067772,1.07
1764750840.6130419,1.31
1764750840.619539,1.68
1764750840.6255841,1.64
1764750840.6317902,1.43
1764750840.638206,1.54
1764750840.644402,1.59
1764750840.650599,1.48
1764750840.656824,1.51
1764750840.66314,1.52
1764750840.669991,1.55
1764750840.675549,1.58
1764750840.681819,1.47
1764750840.68805,1.54
1764750840.694338,1.6
1764750840.719382,1.52
1764750840.7195761,1.59
1764750840.71975,1.57
1764750840.73063,1.55
1764750840.73154,1.61
1764750840.752307,1.58
1764750840.752544,1.61
1764750840.752834,1.61
1764750840.753021,1.57
1764750840.758456,1.66
1764750840.778246,1.63
1764750840.778371,1.61
1764750840.778579,1.67
1764750840.781825,1.64
1764750840.79172,1.7
1764750840.794264,1.72
1764750840.8014011,1.65
1764750840.806813,1.73
1764750840.813229,1.71
1764750840.819535,1.69
1764750840.8255181,1.73
1764750840.831885,1.68
1764750840.838086,1.73
1764750840.84432,1.69
1764750840.850538,1.62
1764750840.856888,1.69
1764750840.862972,1.64
1764750840.869358,1.59
1764750840.8754492,1.64
1764750840.881831,1.54
1764750840.888038,1.59
1764750840.894201,1.62
1764750840.9006379,1.51
1764750840.90676,1.57
1764750840.913012,1.55
1764750840.9193149,1.51
1764750840.9259079,1.57
1764750840.931736,1.53
1764750840.938025,1.55
1764750840.944258,1.57
1764750840.9505641,1.52
1764750840.956867,1.59
1764750840.963042,1.54
1764750840.969378,1.54
1764750840.97562,1.62
1764750840.981878,1.55
1764750840.988032,1.56
1764750840.994244,1.61
1764750841.000633,1.57
1764750841.006739,1.62
1764750841.01301,1.56
1764750841.01943,1.54
1764750841.0256221,1.62
1764750841.0317838,1.55
1764750841.037968,1.58
1764750841.044331,1.59
1764750841.050555,1.53
1764750841.056757,1.59
1764750841.0629828,1.57
1764750841.069412,1.55
1764750841.0755908,1.6
1764750841.081815,1.53
1764750841.0879629,1.58
1764750841.09425,1.59
1764750841.1005492,1.51
1764750841.106747,1.57
1764750841.113106,1.57
1764750841.1194282,1.55
1764750841.125466,1.6
1764750841.1318378,1.54
1764750841.1380138,1.56
1764750841.1443431,1.57
1764750841.1505642,1.51
1764750841.156738,1.59
1764750841.162922,1.59
1764750841.1693099,1.55
1764750841.175513,1.59
1764750841.181729,1.54
1764750841.1879401,1.58
1764750841.1943521,1.6
1764750841.2004979,1.52
1764750841.206727,1.59
1764750841.2130492,1.58
1764750841.21933,1.59
1764750841.2255318,1.68
1764750841.231724,1.65
1764750841.237952,1.7
1764750841.244276,1.7
1764750841.250449,1.63
1764750841.2566779,1.72
1764750841.262944,1.63
1764750841.269414,1.6
1764750841.275459,1.64
1764750841.281742,1.5
1764750841.287959,1.53
1764750841.294243,1.57
1764750841.3005052,1.51
1764750841.306589,1.54
1764750841.312905,1.53
1764750841.3191931,1.52
1764750841.32544,1.56
1764750841.331626,1.52
1764750841.3379252,1.57
1764750841.344192,1.55
1764750841.350484,1.51
1764750841.356595,1.59
1764750841.36289,1.54
1764750841.3693,1.54
1764750841.375484,1.74
1764750841.381747,2.16
1764750841.387933,2.9
1764750841.3941708,3.1
1764750841.400411,2.64
1764750841.40658,1.58
1764750841.4129221,1.03
1764750841.419296,1.48
1764750841.425455,1.73
1764750841.431634,1.51
1764750841.438036,1.48
1764750841.444225,1.55
1764750841.450484,1.49
1764750841.456654,1.55
1764750841.463007,1.53
1764750841.469358,1.49
1764750841.475592,1.57
1764750841.481633,1.52
1764750841.4879591,1.54
1764750841.494111,1.58
1764750841.500501,1.5
1764750841.5065951,1.55
1764750841.512958,1.6
1764750841.519171,1.55
1764750841.525464,1.59
1764750841.531618,1.55
1764750841.5379388,1.59
1764750841.54412,1.6
1764750841.5503948,1.54
1764750841.5565782,1.65
1764750841.562921,1.63
1764750841.569209,1.57
1764750841.575414,1.69
1764750841.581613,1.64
1764750841.587877,1.66
1764750841.59418,1.69
1764750841.600412,1.65
1764750841.6065621,1.73
1764750841.6129549,1.7
1764750841.6192808,1.66
1764750841.62537,1.72
1764750841.6316512,1.65
1764750841.6378539,1.71
1764750841.644193,1.74
1764750841.650377,1.63
1764750841.656563,1.67
1764750841.662832,1.64
1764750841.669188,1.58
1764750841.675526,1.59
1764750841.681556,1.54
1764750841.687853,1.56
1764750841.694113,1.57
1764750841.70032,1.47
1764750841.706527,1.52
1764750841.712876,1.52
1764750841.719151,1.52
1764750841.7253702,1.54
1764750841.7315998,1.48
1764750841.7378392,1.52
1764750841.744055,1.54
1764750841.750327,1.48
1764750841.7565079,1.55
1764750841.762848,1.55
1764750841.769254,1.52
1764750841.775361,1.59
1764750841.7815099,1.52
1764750841.787811,1.53
1764750841.793992,1.56
1764750841.8003058,1.52
1764750841.8065028,1.59
1764750841.812831,1.54
1764750841.819108,1.53
1764750841.825394,1.6
1764750841.831558,1.51
1764750841.837857,1.55
1764750841.844126,1.6
1764750841.850346,1.5
1764750841.8565052,1.54
1764750841.862869,1.55
1764750841.8692229,1.51
1764750841.8754208,1.58
1764750841.881618,1.53
1764750841.887743,1.54
1764750841.894083,1.54
1764750841.900341,1.46
1764750841.906556,1.56
1764750841.912946,1.56
1764750841.9192379,1.5
1764750841.925426,1.57
1764750841.931618,1.52
1764750841.9378262,1.55
1764750841.9442098,1.55
1764750841.950279,1.49
1764750841.9565,1.55
1764750841.962802,1.55
1764750841.969186,1.52
1764750841.9753,1.58
1764750841.981528,1.5
1764750841.987846,1.54
1764750841.994059,1.58
1764750842.000289,1.51
1764750842.006481,1.58
1764750842.012893,1.58
1764750842.01909,1.55
1764750842.025353,1.68
1764750842.031639,1.69
1764750842.037956,1.71
1764750842.0441248,1.7
1764750842.050401,1.63
1764750842.056563,1.64
1764750842.0628421,1.64
1764750842.070306,1.57
1764750842.0752552,1.56
1764750842.081525,1.49
1764750842.08773,1.53
1764750842.0940092,1.57
1764750842.100256,1.48
1764750842.106443,1.53
1764750842.112767,1.52
1764750842.119024,1.5
1764750842.125288,1.54
1764750842.131459,1.51
1764750842.137818,1.54
1764750842.14398,1.59
1764750842.1502879,1.52
1764750842.156461,1.55
1764750842.162807,1.56
1764750842.169116,1.67
1764750842.175296,2.14
1764750842.18148,2.8
1764750842.1960618,3.07
1764750842.196247,2.83
1764750842.2142441,1.74
1764750842.2144158,1.09
1764750842.214568,1.39
1764750842.2269309,1.62
1764750842.227054,1.6
1764750842.231574,1.46
1764750842.243291,1.52
1764750842.244704,1.56
1764750842.2508302,1.47
1764750842.257382,1.51
1764750842.2635782,1.54
1764750842.269899,1.52
1764750842.275311,1.58
1764750842.281466,1.51
1764750842.288239,1.52
1764750842.293952,1.57
1764750842.30015,1.51
1764750842.3064141,1.57
1764750842.312781,1.56
1764750842.319082,1.54
1764750842.325243,1.62
1764750842.331501,1.55
1764750842.337714,1.57
1764750842.343945,1.62
1764750842.350231,1.58
1764750842.356384,1.66
1764750842.362696,1.63
1764750842.369071,1.59
1764750842.375206,1.69
1764750842.381473,1.64
1764750842.387676,1.68
1764750842.3940768,1.73
1764750842.400224,1.64
1764750842.4064362,1.71
1764750842.412674,1.71
1764750842.419133,1.69
1764750842.425225,1.75
1764750842.431423,1.69
1764750842.437763,1.68
1764750842.443917,1.68
1764750842.450183,1.64
1764750842.456434,1.71
1764750842.462657,1.63
1764750842.469184,1.54
1764750842.475196,1.61
1764750842.481448,1.54
1764750842.4877079,1.55
1764750842.493883,1.57
1764750842.5001652,1.5
1764750842.5063832,1.53
1764750842.51261,1.53
1764750842.519189,1.52
1764750842.525401,1.57
1764750842.531488,1.5
1764750842.537678,1.54
1764750842.543933,1.58
1764750842.550227,1.51
1764750842.5563781,1.56
1764750842.5627258,1.56
1764750842.569095,1.55
1764750842.5751832,1.61
1764750842.581614,1.54
1764750842.587678,1.55
1764750842.59394,1.62
1764750842.600172,1.56
1764750842.606396,1.58
1764750842.612736,1.57
1764750842.619025,1.56
1764750842.625219,1.61
1764750842.6314182,1.52
1764750842.6377559,1.56
1764750842.6439,1.62
1764750842.650262,1.53
1764750842.656437,1.57
1764750842.6626618,1.57
1764750842.669146,1.54
1764750842.675267,1.59
1764750842.6813881,1.53
1764750842.687625,1.55
1764750842.693985,1.62
1764750842.700174,1.53
1764750842.70639,1.56
1764750842.7126248,1.55
1764750842.718983,1.51
1764750842.725198,1.6
1764750842.73135,1.55
1764750842.737671,1.54
1764750842.743875,1.58
1764750842.750148,1.52
1764750842.7564108,1.57
1764750842.76268,1.56
1764750842.768905,1.54
1764750842.775125,1.6
1764750842.781415,1.54
1764750842.787586,1.54
1764750842.794032,1.59
1764750842.800143,1.53
1764750842.80636,1.58
1764750842.812877,1.56
1764750842.818939,1.55
1764750842.8251672,1.64
1764750842.831371,1.59
1764750842.837666,1.65
1764750842.8439229,1.74
1764750842.850615,1.71
1764750842.85633,1.73
1764750842.8627,1.72
1764750842.869076,1.64
1764750842.875144,1.69
1764750842.881406,1.62
1764750842.8875709,1.56
1764750842.89379,1.57
1764750842.900085,1.51
1764750842.906348,1.56
1764750842.912578,1.55
1764750842.9188979,1.52
1764750842.925108,1.59
1764750842.931347,1.52
1764750842.93747,1.52
1764750842.943839,1.58
1764750842.950121,1.52
1764750842.956331,1.58
1764750842.962569,1.55
1764750842.968843,1.5
1764750842.975081,1.59
1764750842.981351,1.62
1764750842.9876149,1.94
1764750842.993876,2.69
1764750843.000084,3.06
1764750843.0063128,2.94
1764750843.012577,2.08
1764750843.018828,1.02
1764750843.0251231,1.3
1764750843.031329,1.68
1764750843.037576,1.64
1764750843.04383,1.52
1764750843.05026,1.45
1764750843.056316,1.56
1764750843.062515,1.54
1764750843.068861,1.49
1764750843.075093,1.56
1764750843.081334,1.52
1764750843.087543,1.53
1764750843.093877,1.58
1764750843.100074,1.5
1764750843.1062982,1.57
1764750843.11252,1.58
1764750843.1189508,1.53
1764750843.1250508,1.59
1764750843.1313438,1.55
1764750843.13764,1.59
1764750843.1438851,1.63
1764750843.1500201,1.56
1764750843.156364,1.63
1764750843.162564,1.63
1764750843.1688309,1.59
1764750843.1750789,1.66
1764750843.1812868,1.63
1764750843.187684,1.65
1764750843.1938078,1.69
1764750843.200045,1.64
1764750843.20626,1.69
1764750843.2124858,1.73
1764750843.218828,1.68
1764750843.225158,1.74
1764750843.231254,1.7
1764750843.2374852,1.71
1764750843.243753,1.75
1764750843.250047,1.68
1764750843.256227,1.73
1764750843.26256,1.7
1764750843.268841,1.64
1764750843.275054,1.69
1764750843.281229,1.59
1764750843.287532,1.58
1764750843.2938209,1.6
1764750843.3000262,1.52
1764750843.3062432,1.56
1764750843.3125918,1.54
1764750843.318837,1.49
1764750843.325015,1.56
1764750843.331291,1.52
1764750843.3374841,1.52
1764750843.343797,1.56
1764750843.350016,1.5
1764750843.3562438,1.55
1764750843.36252,1.54
1764750843.3687859,1.49
1764750843.3750231,1.57
1764750843.381231,1.57
1764750843.387446,1.56
1764750843.3937972,1.58
1764750843.400085,1.51
1764750843.4062772,1.6
1764750843.412621,1.59
1764750843.4188101,1.51
1764750843.4249651,1.58
1764750843.431314,1.55
1764750843.437502,1.56
1764750843.443737,1.58
1764750843.4501061,1.51
1764750843.456256,1.56
1764750843.462524,1.57
1764750843.468846,1.55
1764750843.475093,1.58
1764750843.481311,1.51
1764750843.4875221,1.55
1764750843.493748,1.58
1764750843.499976,1.5
1764750843.506309,1.56
1764750843.512498,1.57
1764750843.51881,1.52
1764750843.5250518,1.58
1764750843.5312152,1.53
1764750843.5374668,1.55
1764750843.543822,1.58
1764750843.5499141,1.51
1764750843.556245,1.57
1764750843.562701,1.56
1764750843.5686998,1.51
1764750843.5750651,1.6
1764750843.581247,1.54
1764750843.5875158,1.53
1764750843.593764,1.58
1764750843.599971,1.52
1764750843.606257,1.59
1764750843.612441,1.58
1764750843.618746,1.52
1764750843.624993,1.61
1764750843.631217,1.6
1764750843.637398,1.66
1764750843.643662,1.75
1764750843.649917,1.7
1764750843.656236,1.74
1764750843.6625001,1.69
1764750843.668704,1.6
1764750843.674895,1.71
1764750843.6811562,1.61
1764750843.697376,1.51
1764750843.6975,1.54
1764750843.730342,1.52
1764750843.730477,1.56
1764750843.730564,1.52
1764750843.730648,1.51
1764750843.730732,1.55
1764750843.737361,1.5
1764750843.739151,1.53
1764750843.743662,1.59
1764750843.750593,1.51
1764750843.756126,1.57
1764750843.7630432,1.55
1764750843.769196,1.48
1764750843.774921,1.59
1764750843.781628,1.71
1764750843.787403,2.19
1764750843.7935748,2.96
1764750843.800064,3.03
1764750843.8062332,2.66
1764750843.8125231,1.52
1764750843.8186471,0.97
1764750843.8251038,1.58
1764750843.831243,1.71
1764750843.8373399,1.52
1764750843.843636,1.51
1764750843.850098,1.5
1764750843.856394,1.56
1764750843.862441,1.54
1764750843.8686872,1.49
1764750843.874945,1.57
1764750843.88127,1.53
1764750843.887455,1.55
1764750843.893784,1.57
1764750843.8999949,1.5
1764750843.9061,1.58
1764750843.912401,1.59
1764750843.918797,1.54
1764750843.924897,1.6
1764750843.931133,1.54
1764750843.9374158,1.56
1764750843.943956,1.62
1764750843.9501178,1.55
1764750843.956183,1.62
1764750843.962312,1.64
1764750843.968686,1.59
1764750843.974866,1.67
1764750843.981118,1.65
1764750843.987363,1.66
1764750843.9935958,1.7
1764750844.000067,1.66
1764750844.006054,1.73
1764750844.012356,1.72
1764750844.018605,1.69
1764750844.024885,1.74
1764750844.0312178,1.7
1764750844.0373828,1.73
1764750844.043651,1.76
1764750844.049948,1.67
1764750844.05609,1.74
1764750844.062967,1.72
1764750844.068813,1.6
1764750844.074873,1.66
1764750844.0811892,1.62
1764750844.0873442,1.61
1764750844.093632,1.61
1764750844.100323,1.5
1764750844.1061602,1.55
1764750844.112368,1.54
1764750844.11868,1.49
1764750844.1249652,1.56
1764750844.131146,1.5
1764750844.1372612,1.49
1764750844.1435661,1.58
1764750844.149864,1.53
1764750844.156031,1.56
1764750844.162299,1.53
1764750844.168589,1.5
1764750844.174953,1.6
1764750844.1810539,1.54
1764750844.187362,1.53
1764750844.1936269,1.59
1764750844.199879,1.52
1764750844.2060869,1.57
1764750844.212311,1.58
1764750844.218579,1.53
1764750844.22489,1.6
1764750844.231068,1.53
1764750844.2373,1.55
1764750844.243613,1.59
1764750844.249868,1.53
1764750844.25602,1.59
1764750844.262306,1.58
1764750844.268598,1.52
1764750844.274833,1.56
1764750844.28103,1.56
1764750844.287293,1.55
1764750844.293538,1.57
1764750844.299815,1.5
1764750844.306096,1.55
1764750844.312375,1.58
1764750844.3186922,1.52
1764750844.3248699,1.57
1764750844.3311172,1.54
1764750844.3373508,1.55
1764750844.343561,1.58
1764750844.349986,1.51
1764750844.356009,1.58
1764750844.362266,1.58
1764750844.3685708,1.52
1764750844.374822,1.58
1764750844.3811011,1.53
1764750844.387275,1.55
1764750844.393739,1.59
1764750844.399877,1.51
1764750844.405959,1.6
1764750844.412257,1.66
1764750844.418558,1.64
1764750844.424813,1.74
1764750844.4311192,1.7
1764750844.437311,1.71
1764750844.4436102,1.72
1764750844.449808,1.57
1764750844.455967,1.65
1764750844.462249,1.61
1764750844.46859,1.48
1764750844.474839,1.55
1764750844.480984,1.52
1764750844.487215,1.51
1764750844.4936042,1.55
1764750844.499827,1.48
1764750844.5059478,1.52
1764750844.5123808,1.53
1764750844.518562,1.51
1764750844.524833,1.57
1764750844.530995,1.52
1764750844.5372171,1.53
1764750844.543477,1.56
1764750844.5498571,1.49
1764750844.555956,1.62
1764750844.5622258,1.83
1764750844.568485,2.34
1764750844.5747998,3.05
1764750844.580983,3.0
1764750844.5873039,2.42
1764750844.593683,1.32
1764750844.6000042,1.07
1764750844.605986,1.63
1764750844.612512,1.69
1764750844.618597,1.46
1764750844.6248472,1.51
1764750844.631,1.51
1764750844.6373398,1.52
1764750844.6435468,1.57
1764750844.649856,1.47
1764750844.655949,1.52
1764750844.6623209,1.55
1764750844.668564,1.51
1764750844.674825,1.56
1764750844.681066,1.53
1764750844.687289,1.54
1764750844.69345,1.59
1764750844.699798,1.5
1764750844.7059531,1.57
1764750844.712229,1.61
1764750844.7184849,1.56
1764750844.724822,1.62
1764750844.730927,1.56
1764750844.737288,1.57
1764750844.743649,1.65
1764750844.7498171,1.58
1764750844.755894,1.65
1764750844.762221,1.66
1764750844.768501,1.61
1764750844.77477,1.69
1764750844.780989,1.66
1764750844.787194,1.67
1764750844.793508,1.72
1764750844.800034,1.66
1764750844.805911,1.7
1764750844.812238,1.71
1764750844.81845,1.68
1764750844.8247511,1.72
1764750844.830919,1.66
1764750844.8372061,1.68
1764750844.843394,1.7
1764750844.8498418,1.6
1764750844.855895,1.64
1764750844.862187,1.6
1764750844.8685079,1.54
1764750844.8747141,1.6
1764750844.8809721,1.5
1764750844.887213,1.51
1764750844.893375,1.57
1764750844.899742,1.5
1764750844.9058921,1.52
1764750844.912203,1.52
1764750844.918498,1.49
1764750844.924768,1.56
1764750844.930906,1.52
1764750844.9371572,1.53
1764750844.943415,1.58
1764750844.9499378,1.52
1764750844.955931,1.55
1764750844.962312,1.54
1764750844.9684532,1.52
1764750844.9748428,1.59
1764750844.9809878,1.52
1764750844.9872231,1.54
1764750844.9935622,1.61
1764750845.000392,1.52
1764750845.00586,1.56
1764750845.0122619,1.58
1764750845.0186381,1.52
1764750845.024747,1.57
1764750845.030915,1.53
1764750845.03734,1.54
1764750845.0435688,1.6
1764750845.0497122,1.52
1764750845.056042,1.55
1764750845.0622358,1.55
1764750845.068832,1.52
1764750845.074715,1.58
1764750845.081057,1.53
1764750845.0873659,1.53
1764750845.093467,1.58
1764750845.099991,1.51
1764750845.105849,1.56
1764750845.1122901,1.57
1764750845.1184902,1.52
1764750845.124672,1.57
1764750845.130959,1.53
1764750845.1371589,1.54
1764750845.1434119,1.56
1764750845.150023,1.51
1764750845.155874,1.58
1764750845.1621408,1.58
1764750845.168426,1.55
1764750845.1748118,1.7
1764750845.180879,1.72
1764750845.1872761,1.66
1764750845.193457,1.69
1764750845.200008,1.65
1764750845.205853,1.66
1764750845.2121751,1.64
1764750845.218313,1.53
1764750845.2246668,1.55
1764750845.2308931,1.51
1764750845.2371042,1.53
1764750845.2433789,1.53
1764750845.249878,1.46
1764750845.2558248,1.56
1764750845.262105,1.55
1764750845.2683399,1.48
1764750845.274666,1.55
1764750845.2809868,1.52
1764750845.287137,1.51
1764750845.293468,1.56
1764750845.2996988,1.52
1764750845.305875,1.54
1764750845.312208,1.58
1764750845.318471,1.73
1764750845.324694,2.31
1764750845.3308532,2.94
1764750845.337055,3.01
1764750845.343425,2.62
1764750845.3496268,1.44
1764750845.35589,1.07
1764750845.362205,1.53
1764750845.368551,1.59
1764750845.374601,1.52
1764750845.3810601,1.46
1764750845.3870878,1.52
1764750845.396505,1.56
1764750845.410269,1.48
1764750845.420259,1.5
1764750845.426924,1.52
1764750845.4446862,1.51
1764750845.452157,1.56
1764750845.454153,1.5
1764750845.47054,1.52
1764750845.470691,1.59
1764750845.470886,1.51
1764750845.47101,1.55
1764750845.4711921,1.59
1764750845.471385,1.55
1764750845.4746099,1.59
1764750845.48632,1.56
1764750845.487073,1.59
1764750845.4933372,1.63
1764750845.499927,1.55
1764750845.5057511,1.65
1764750845.512052,1.65
1764750845.5183911,1.59
1764750845.5247328,1.68
1764750845.530946,1.66
1764750845.5370162,1.65
1764750845.543434,1.72
1764750845.549661,1.67
1764750845.555826,1.7
1764750845.562059,1.7
1764750845.568314,1.68
1764750845.574639,1.74
1764750845.580819,1.67
1764750845.58707,1.66
1764750845.593337,1.75
1764750845.599612,1.67
1764750845.6057768,1.66
1764750845.6120892,1.64
1764750845.6183522,1.57
1764750845.62448,1.6
1764750845.630856,1.53
1764750845.63703,1.53
1764750845.6433222,1.59
1764750845.649601,1.52
1764750845.655802,1.53
1764750845.662129,1.55
1764750845.668436,1.53
1764750845.674783,1.56
1764750845.680862,1.51
1764750845.687082,1.52
1764750845.693279,1.59
1764750845.6996942,1.52
1764750845.705787,1.57
1764750845.711942,1.58
1764750845.718293,1.5
1764750845.7245939,1.6
1764750845.730731,1.57
1764750845.7369862,1.54
1764750845.743297,1.59
1764750845.750143,1.52
1764750845.755828,1.58
1764750845.762142,1.58
1764750845.7682729,1.53
1764750845.774504,1.61
1764750845.780778,1.54
1764750845.787127,1.54
1764750845.793247,1.59
1764750845.800137,1.52
1764750845.805762,1.56
1764750845.8122292,1.58
1764750845.8183281,1.52
1764750845.824508,1.58
1764750845.830793,1.55
1764750845.8370738,1.56
1764750845.843288,1.56
1764750845.849658,1.5
1764750845.8557389,1.58
1764750845.862004,1.57
1764750845.868237,1.51
1764750845.874485,1.6
1764750845.880764,1.54
1764750845.886912,1.54
1764750845.893255,1.58
1764750845.8996348,1.52
1764750845.905786,1.56
1764750845.9121,1.57
1764750845.9181728,1.52
1764750845.924478,1.59
1764750845.9307048,1.53
1764750845.9370291,1.54
1764750845.94327,1.62
1764750845.949527,1.57
1764750845.9556859,1.69
1764750845.962019,1.73
1764750845.9682162,1.68
1764750845.9744372,1.72
1764750845.980813,1.68
1764750845.9869068,1.63
1764750845.9931462,1.69
1764750845.999593,1.58
1764750846.005822,1.54
1764750846.011911,1.52
1764750846.0181608,1.51
1764750846.024527,1.58
1764750846.030741,1.49
1764750846.036923,1.5
1764750846.0432189,1.59
1764750846.049533,1.5
1764750846.0557709,1.52
1764750846.061944,1.54
1764750846.068244,1.53
1764750846.0745778,1.58
1764750846.080765,1.52
1764750846.086935,1.5
1764750846.09317,1.57
1764750846.099475,1.64
1764750846.1056828,2.12
1764750846.111902,2.86
1764750846.118197,3.03
1764750846.124465,2.76
1764750846.1308181,1.68
1764750846.1370502,0.95
1764750846.143292,1.48
1764750846.149804,1.69
1764750846.155673,1.57
1764750846.162163,1.48
1764750846.168281,1.48
1764750846.174443,1.56
1764750846.180884,1.51
1764750846.18683,1.51
1764750846.193164,1.55
1764750846.1994681,1.49
1764750846.205678,1.55
1764750846.2118971,1.56
1764750846.2182121,1.49
1764750846.224399,1.57
1764750846.230734,1.54
1764750846.2368698,1.54
1764750846.243128,1.59
1764750846.24947,1.53
1764750846.255664,1.59
1764750846.261887,1.61
1764750846.2681532,1.55
1764750846.2743511,1.63
1764750846.280681,1.61
1764750846.2868228,1.59
1764750846.2931268,1.65
1764750846.299616,1.62
1764750846.305692,1.67
1764750846.312057,1.69
1764750846.318154,1.66
1764750846.324418,1.72
1764750846.330673,1.67
1764750846.336871,1.71
1764750846.343227,1.74
1764750846.349514,1.68
1764750846.355787,1.73
1764750846.361993,1.72
1764750846.3681731,1.65
1764750846.374403,1.73
1764750846.38064,1.67
1764750846.386857,1.65
1764750846.393145,1.66
1764750846.399491,1.56
1764750846.405685,1.6
1764750846.4118211,1.57
1764750846.418041,1.5
1764750846.424384,1.58
1764750846.4307158,1.52
1764750846.436775,1.51
1764750846.4430861,1.55
1764750846.449375,1.49
1764750846.4555771,1.54
1764750846.461946,1.55
1764750846.46815,1.51
1764750846.474411,1.56
1764750846.480694,1.52
1764750846.486788,1.55
1764750846.49315,1.61
1764750846.499676,1.52
1764750846.505666,1.56
1764750846.512083,1.57
1764750846.518204,1.51
1764750846.5243971,1.59
1764750846.5306518,1.56
1764750846.5369012,1.53
1764750846.5431302,1.58
1764750846.5495229,1.54
1764750846.5556648,1.59
1764750846.561936,1.59
1764750846.56818,1.52
1764750846.5743601,1.6
1764750846.580679,1.54
1764750846.586883,1.53
1764750846.593141,1.57
1764750846.599381,1.52
1764750846.605598,1.57
1764750846.611825,1.55
1764750846.618088,1.5
1764750846.624327,1.56
1764750846.630678,1.52
1764750846.636725,1.52
1764750846.643116,1.59
1764750846.6494122,1.53
1764750846.655568,1.54
1764750846.661798,1.56
1764750846.668054,1.51
1764750846.674339,1.58
1764750846.680643,1.55
1764750846.686698,1.52
1764750846.693074,1.57
1764750846.699324,1.52
1764750846.705555,1.58
1764750846.7118652,1.56
1764750846.7180521,1.5
1764750846.724282,1.59
1764750846.730609,1.56
1764750846.736764,1.55
1764750846.743134,1.66
1764750846.7493892,1.66
1764750846.7555041,1.74
1764750846.761804,1.72
1764750846.768097,1.67
1764750846.774307,1.71
1764750846.780708,1.63
1764750846.786738,1.65
1764750846.79305,1.61
1764750846.799459,1.46
1764750846.805603,1.53
1764750846.8119402,1.57
1764750846.818038,1.49
1764750846.824373,1.54
1764750846.8305879,1.52
1764750846.8367412,1.52
1764750846.842999,1.54
1764750846.849403,1.49
1764750846.85549,1.57
1764750846.8617768,1.58
1764750846.868073,1.5
1764750846.874331,1.54
1764750846.88064,1.51
1764750846.8868191,1.61
1764750846.892977,1.88
1764750846.8994071,2.39
1764750846.9055932,3.07
1764750846.911838,3.05
1764750846.918113,2.3
1764750846.924327,1.19
1764750846.930915,1.16
1764750846.936667,1.66
1764750846.942952,1.69
1764750846.949328,1.45
1764750846.9556339,1.52
1764750846.961926,1.56
1764750846.968301,1.5
1764750846.97431,1.56
1764750846.980607,1.53
1764750846.98703,1.52
1764750846.993183,1.55
1764750846.999326,1.52
1764750847.0056,1.6
1764750847.01182,1.57
1764750847.017985,1.52
1764750847.037653,1.59
1764750847.078364,1.55
1764750847.104876,1.56
1764750847.105072,1.63
1764750847.1051872,1.55
1764750847.105608,1.6
1764750847.105751,1.64
1764750847.1058922,1.59
1764750847.106039,1.66
1764750847.106164,1.62
1764750847.1066492,1.64
1764750847.106784,1.72
1764750847.107188,1.67
1764750847.10732,1.68
1764750847.111723,1.7
1764750847.124558,1.66
1764750847.124749,1.75
1764750847.130522,1.72
1764750847.1367161,1.7
1764750847.142964,1.75
1764750847.149305,1.68
1764750847.1555378,1.73
1764750847.1617029,1.73
1764750847.168027,1.66
1764750847.17429,1.72
1764750847.180587,1.65
1764750847.186723,1.6
1764750847.192908,1.63
1764750847.1992278,1.57
1764750847.20544,1.6
1764750847.2117891,1.57
1764750847.217998,1.49
1764750847.2242339,1.55
1764750847.230484,1.53
1764750847.236754,1.51
1764750847.242923,1.56
1764750847.249196,1.52
1764750847.255477,1.56
1764750847.261687,1.55
1764750847.267924,1.5
1764750847.274202,1.6
1764750847.280843,1.55
1764750847.286658,1.54
1764750847.292911,1.59
1764750847.299191,1.52
1764750847.3054342,1.57
1764750847.3116732,1.58
1764750847.317922,1.54
1764750847.3241751,1.62
1764750847.330506,1.57
1764750847.336662,1.55
1764750847.342894,1.58
1764750847.349191,1.52
1764750847.355486,1.59
1764750847.361684,1.58
1764750847.3679202,1.52
1764750847.374198,1.59
1764750847.380995,1.53
1764750847.386664,1.53
1764750847.392889,1.59
1764750847.39918,1.53
1764750847.405432,1.58
1764750847.411631,1.57
1764750847.4179451,1.52
1764750847.424211,1.59
1764750847.430478,1.54
1764750847.436735,1.55
1764750847.442815,1.58
1764750847.449247,1.52
1764750847.455432,1.59
1764750847.461633,1.57
1764750847.467911,1.52
1764750847.474132,1.6
1764750847.4806871,1.53
1764750847.486557,1.52
1764750847.492967,1.6
1764750847.499213,1.52
1764750847.505488,1.6
1764750847.511699,1.67
1764750847.517942,1.64
1764750847.524169,1.74
1764750847.530657,1.71
1764750847.5366411,1.69
1764750847.542938,1.72
1764750847.549193,1.58
1764750847.555451,1.65
1764750847.56176,1.61
1764750847.567969,1.49
1764750847.574143,1.57
1764750847.5806,1.51
1764750847.586571,1.49
1764750847.593018,1.58
1764750847.599221,1.51
1764750847.605623,1.53
1764750847.611586,1.54
1764750847.6179252,1.5
1764750847.624109,1.57
1764750847.6305642,1.53
1764750847.6366222,1.53
1764750847.642817,1.56
1764750847.6498392,1.48
1764750847.6554,1.6
1764750847.661612,1.78
1764750847.6679628,2.24
1764750847.674114,3.01
1764750847.680453,3.03
1764750847.6865458,2.5
1764750847.6928651,1.47
1764750847.699183,1.06
1764750847.705429,1.54
1764750847.7115579,1.65
1764750847.7178571,1.46
1764750847.724226,1.52
1764750847.731155,1.53
1764750847.7365918,1.5
1764750847.742885,1.51
1764750847.749183,1.48
1764750847.755407,1.54
1764750847.7616289,1.51
1764750847.7678452,1.48
1764750847.7741508,1.6
1764750847.780391,1.54
1764750847.786579,1.51
1764750847.792935,1.57
1764750847.799253,1.51
1764750847.805372,1.56
1764750847.811568,1.61
1764750847.817811,1.55
1764750847.8240561,1.6
1764750847.830579,1.57
1764750847.836684,1.58
1764750847.842839,1.65
1764750847.849101,1.56
1764750847.855254,1.64
1764750847.861563,1.66
1764750847.867933,1.62
1764750847.8740292,1.67
1764750847.880359,1.64
1764750847.8864908,1.67
1764750847.8927412,1.71
1764750847.899095,1.63
1764750847.90533,1.71
1764750847.9115462,1.73
1764750847.917801,1.66
1764750847.924054,1.72
1764750847.930358,1.69
1764750847.936556,1.68
1764750847.9429939,1.68
1764750847.949182,1.62
1764750847.955323,1.67
1764750847.961586,1.62
1764750847.967791,1.52
1764750847.974091,1.58
1764750847.9803011,1.56
1764750847.986667,1.54
1764750847.9930098,1.54
1764750847.999091,1.51
1764750848.0053408,1.56
1764750848.011711,1.54
1764750848.017864,1.49
1764750848.02405,1.57
1764750848.0303712,1.55
1764750848.036638,1.53
1764750848.0428932,1.59
1764750848.049047,1.52
1764750848.0553238,1.58
1764750848.061544,1.58
1764750848.067861,1.53
1764750848.074183,1.62
1764750848.080273,1.56
1764750848.086496,1.55
1764750848.092923,1.62
1764750848.099036,1.57
1764750848.105431,1.6
1764750848.111545,1.61
1764750848.117831,1.55
1764750848.1240451,1.63
1764750848.13029,1.58
1764750848.1365361,1.56
1764750848.1427882,1.61
1764750848.149068,1.54
1764750848.155328,1.59
1764750848.161483,1.6
1764750848.167753,1.55
1764750848.173996,1.62
1764750848.180313,1.58
1764750848.1865861,1.56
1764750848.19282,1.6
1764750848.199027,1.54
1764750848.205268,1.59
1764750848.211488,1.59
1764750848.217747,1.55
1764750848.223959,1.61
1764750848.23056,1.56
1764750848.236484,1.57
1764750848.2427258,1.63
1764750848.248968,1.58
1764750848.2551801,1.69
1764750848.2615511,1.72
1764750848.2676868,1.66
1764750848.273986,1.78
1764750848.280534,1.77
1764750848.286502,1.71
1764750848.292802,1.74
1764750848.299139,1.64
1764750848.305263,1.68
1764750848.311577,1.64
1764750848.3177788,1.51
1764750848.324039,1.57
1764750848.330356,1.55
1764750848.336465,1.54
1764750848.342687,1.56
1764750848.3489459,1.49
1764750848.355221,1.55
1764750848.36143,1.56
1764750848.367724,1.53
1764750848.374026,1.57
1764750848.380231,1.52
1764750848.386421,1.54
1764750848.392789,1.61
1764750848.399016,1.49
1764750848.405269,1.58
1764750848.411498,1.72
1764750848.417801,2.02
1764750848.423965,2.84
1764750848.4302201,3.1
1764750848.436419,2.8
1764750848.44273,1.86
1764750848.4489338,0.99
1764750848.455212,1.39
1764750848.461437,1.77
1764750848.4677,1.58
1764750848.47399,1.5
1764750848.480246,1.52
1764750848.4864,1.56
1764750848.4927738,1.6
1764750848.499171,1.49
1764750848.513006,1.57
1764750848.514719,1.59
1764750848.520431,1.53
1764750848.526518,1.61
1764750848.5362759,1.55
1764750848.558806,1.56
1764750848.5648818,1.63
1764750848.587942,1.55
1764750848.5881011,1.59
1764750848.5882099,1.61
1764750848.5883,1.59
1764750848.5884721,1.65
1764750848.5886168,1.59
1764750848.5887182,1.6
1764750848.5927029,1.68
1764750848.603675,1.63
1764750848.60522,1.68
1764750848.61235,1.65
1764750848.617663,1.65
1764750848.623898,1.77
1764750848.63024,1.69
1764750848.636367,1.69
1764750848.642685,1.76
1764750848.6489952,1.7
1764750848.655169,1.75
1764750848.6613681,1.78
1764750848.667637,1.72
1764750848.673867,1.77
1764750848.6801338,1.71
1764750848.686347,1.71
1764750848.6927528,1.76
1764750848.6989481,1.64
1764750848.705079,1.65
1764750848.711474,1.66
1764750848.71764,1.57
1764750848.723899,1.6
1764750848.730211,1.59
1764750848.736659,1.56
1764750848.742611,1.58
1764750848.7489028,1.52
1764750848.755219,1.57
1764750848.761417,1.57
1764750848.7675881,1.53
1764750848.7739022,1.6
1764750848.78021,1.54
1764750848.786355,1.52
1764750848.792628,1.61
1764750848.79888,1.56
1764750848.80512,1.6
1764750848.811483,1.6
1764750848.817655,1.55
1764750848.8239732,1.62
1764750848.830549,1.58
1764750848.836371,1.57
1764750848.8426611,1.62
1764750848.8488572,1.57
1764750848.855108,1.63
1764750848.861418,1.62
1764750848.86769,1.55
1764750848.873823,1.63
1764750848.8802528,1.6
1764750848.886364,1.55
1764750848.89273,1.61
1764750848.899155,1.57
1764750848.905195,1.61
1764750848.911412,1.6
1764750848.9178722,1.53
1764750848.9239712,1.61
1764750848.9304209,1.59
1764750848.936299,1.56
1764750848.942751,1.6
1764750848.949088,1.54
1764750848.955113,1.59
1764750848.961333,1.61
1764750848.967526,1.55
1764750848.974124,1.61
1764750848.9804008,1.56
1764750848.986451,1.56
1764750848.992605,1.62
1764750848.998817,1.56
1764750849.005213,1.69
1764750849.0113862,1.74
1764750849.01772,1.65
1764750849.023853,1.75
1764750849.0304,1.79
1764750849.036366,1.71
1764750849.04251,1.69
1764750849.0487838,1.63
1764750849.055079,1.71
1764750849.061551,1.62
1764750849.067615,1.48
1764750849.0740008,1.58
1764750849.080122,1.55
1764750849.086263,1.53
1764750849.092732,1.54
1764750849.099094,1.5
1764750849.1051111,1.57
1764750849.111305,1.56
1764750849.1176152,1.5
1764750849.1238148,1.58
1764750849.130135,1.54
1764750849.13642,1.55
1764750849.1428401,1.6
1764750849.148897,1.49
1764750849.155127,1.57
1764750849.161463,1.72
1764750849.1677299,2.06
1764750849.173853,2.87
1764750849.180466,3.1
1764750849.18627,2.77
1764750849.192631,1.72
1764750849.198826,0.97
1764750849.205065,1.47
1764750849.2114718,1.75
1764750849.2176042,1.53
1764750849.2237718,1.51
1764750849.2301068,1.52
1764750849.236402,1.53
1764750849.2425961,1.57
1764750849.2488189,1.5
1764750849.255031,1.53
1764750849.2613919,1.56
1764750849.2676191,1.55
1764750849.27391,1.59
1764750849.2805812,1.53
1764750849.286279,1.56
1764750849.292492,1.61
1764750849.298757,1.53
1764750849.3050728,1.59
1764750849.311384,1.63
1764750849.317636,1.56
1764750849.3238342,1.62
1764750849.3304498,1.59
1764750849.336342,1.58
1764750849.342613,1.66
1764750849.3487759,1.6
1764750849.354999,1.66
1764750849.3613598,1.66
1764750849.367439,1.64
1764750849.3738182,1.74
1764750849.380157,1.69
1764750849.38626,1.66
1764750849.3925052,1.72
1764750849.3987908,1.69
1764750849.405094,1.74
1764750849.411307,1.74
1764750849.417418,1.69
1764750849.4238951,1.74
1764750849.430187,1.71
1764750849.43624,1.68
1764750849.442467,1.71
1764750849.448736,1.61
1764750849.455038,1.64
1764750849.4612522,1.64
1764750849.467502,1.56
1764750849.473753,1.61
1764750849.4801972,1.55
1764750849.4861948,1.52
1764750849.492503,1.58
1764750849.4987211,1.52
1764750849.504947,1.54
1764750849.511214,1.56
1764750849.517451,1.52
1764750849.523923,1.57
1764750849.530004,1.52
1764750849.536159,1.53
1764750849.542471,1.59
1764750849.548773,1.53
1764750849.554943,1.58
1764750849.5612328,1.57
1764750849.567599,1.52
1764750849.5738308,1.63
1764750849.580228,1.58
1764750849.586139,1.55
1764750849.5925188,1.61
1764750849.5986738,1.55
1764750849.605001,1.58
1764750849.611226,1.57
1764750849.6174889,1.53
1764750849.623747,1.63
1764750849.630115,1.56
1764750849.636131,1.54
1764750849.642518,1.59
1764750849.6487749,1.53
1764750849.654965,1.58
1764750849.661176,1.56
1764750849.667395,1.51
1764750849.673675,1.59
1764750849.680137,1.55
1764750849.686156,1.52
1764750849.692498,1.58
1764750849.6987379,1.54
1764750849.704909,1.57
1764750849.711204,1.56
1764750849.7174678,1.51
1764750849.723737,1.59
1764750849.73011,1.55
1764750849.7361019,1.51
1764750849.742413,1.59
1764750849.748798,1.55
1764750849.754984,1.57
1764750849.7611341,1.55
1764750849.767484,1.58
1764750849.773691,1.74
1764750849.780163,1.67
1764750849.786137,1.66
1764750849.7924988,1.8
1764750849.798691,1.7
1764750849.804899,1.68
1764750849.811213,1.65
1764750849.817448,1.63
1764750849.823682,1.66
1764750849.830066,1.53
1764750849.8361118,1.5
1764750849.8424819,1.54
1764750849.848638,1.5
1764750849.8549042,1.55
1764750849.861161,1.53
1764750849.8673642,1.47
1764750849.873578,1.57
1764750849.880224,1.52
1764750849.886126,1.51
1764750849.892434,1.57
1764750849.8986702,1.52
1764750849.904981,1.54
1764750849.911274,1.53
1764750849.917454,1.48
1764750849.923721,1.65
1764750849.92997,1.85
1764750849.9361548,2.48
1764750849.942406,3.11
1764750849.9486341,2.94
1764750849.954925,2.22
1764750849.961143,1.14
1764750849.967345,1.13
1764750849.973731,1.69
1764750849.980008,1.65
1764750849.986469,1.48
1764750850.0185459,1.52
1764750850.048594,1.5
1764750850.048671,1.56
1764750850.0493271,1.54
1764750850.0621781,1.49
1764750850.062507,1.55
1764750850.0627441,1.52
1764750850.0630028,1.54
1764750850.063253,1.6
1764750850.063352,1.5
1764750850.063448,1.55
1764750850.0635421,1.59
1764750850.067436,1.54
1764750850.077949,1.59
1764750850.081364,1.57
1764750850.086109,1.58
1764750850.093398,1.64
1764750850.098598,1.57
1764750850.104897,1.64
1764750850.111132,1.66
1764750850.117365,1.61
1764750850.123615,1.68
1764750850.12995,1.65
1764750850.1361122,1.68
1764750850.142435,1.73
1764750850.1485708,1.65
1764750850.154839,1.72
1764750850.161342,1.72
1764750850.167465,1.66
1764750850.1735868,1.75
1764750850.179988,1.72
1764750850.186218,1.68
1764750850.192435,1.72
1764750850.1986089,1.67
1764750850.204829,1.72
1764750850.211353,1.67
1764750850.217439,1.59
1764750850.223546,1.66
1764750850.229929,1.59
1764750850.236162,1.58
1764750850.2423081,1.6
1764750850.248539,1.49
1764750850.254812,1.53
1764750850.261143,1.54
1764750850.267204,1.49
1764750850.273543,1.57
1764750850.279899,1.51
1764750850.2861,1.5
1764750850.292323,1.56
1764750850.298561,1.51
1764750850.304859,1.54
1764750850.31103,1.55
1764750850.3172789,1.52
1764750850.3235798,1.59
1764750850.329856,1.53
1764750850.3360891,1.51
1764750850.342287,1.57
1764750850.348578,1.52
1764750850.354847,1.57
1764750850.361005,1.55
1764750850.367381,1.51
1764750850.373524,1.59
1764750850.379807,1.54
1764750850.3860302,1.52
1764750850.392284,1.56
1764750850.398561,1.49
1764750850.4048178,1.55
1764750850.41116,1.55
1764750850.4174001,1.49
1764750850.423558,1.55
1764750850.429796,1.5
1764750850.436068,1.51
1764750850.442281,1.58
1764750850.448427,1.5
1764750850.454985,1.53
1764750850.461049,1.52
1764750850.467205,1.49
1764750850.473589,1.56
1764750850.4799302,1.53
1764750850.486044,1.52
1764750850.492241,1.54
1764750850.498511,1.47
1764750850.504887,1.54
1764750850.5111182,1.54
1764750850.517349,1.48
1764750850.5235898,1.55
1764750850.52987,1.49
1764750850.536093,1.52
1764750850.542283,1.58
1764750850.548617,1.55
1764750850.554985,1.62
1764750850.561172,1.62
1764750850.567435,1.63
1764750850.573568,1.74
1764750850.579851,1.64
1764750850.586519,1.57
1764750850.592275,1.59
1764750850.598513,1.55
1764750850.604728,1.55
1764750850.6110132,1.45
1764750850.6172001,1.39
1764750850.623551,1.5
1764750850.62974,1.44
1764750850.6360471,1.42
1764750850.642272,1.48
1764750850.648502,1.41
1764750850.654755,1.46
1764750850.660983,1.48
1764750850.667231,1.43
1764750850.6734579,1.51
1764750850.6797209,1.43
1764750850.686122,1.4
1764750850.692354,1.46
1764750850.698466,1.48
1764750850.704747,1.68
1764750850.711041,2.16
1764750850.717201,2.83
1764750850.723634,2.98
1764750850.729814,2.48
1764750850.736005,1.4
1764750850.742259,1.04
1764750850.748432,1.36
1764750850.754753,1.54
1764750850.761075,1.44
1764750850.767355,1.34
1764750850.77349,1.45
1764750850.779743,1.4
1764750850.786052,1.38
1764750850.792224,1.45
1764750850.798451,1.37
1764750850.804777,1.41
1764750850.8109791,1.41
1764750850.81733,1.38
1764750850.8235068,1.47
1764750850.8297012,1.38
1764750850.836194,1.39
1764750850.842197,1.45
1764750850.848395,1.41
1764750850.8547142,1.47
1764750850.861123,1.44
1764750850.867275,1.39
1764750850.873494,1.49
1764750850.879667,1.45
1764750850.885982,1.44
1764750850.892284,1.5
1764750850.898425,1.46
1764750850.904738,1.51
1764750850.910933,1.52
1764750850.917312,1.48
1764750850.923399,1.56
1764750850.929709,1.51
1764750850.935874,1.51
1764750850.942206,1.55
1764750850.948384,1.5
1764750850.954714,1.55
1764750850.9609332,1.55
1764750850.967218,1.49
1764750850.973473,1.55
1764750850.97968,1.5
1764750850.985854,1.48
1764750850.992127,1.52
1764750850.998386,1.43
1764750851.004693,1.44
1764750851.010904,1.42
1764750851.017159,1.36
1764750851.023409,1.41
1764750851.029732,1.36
1764750851.035964,1.35
1764750851.042231,1.39
1764750851.04838,1.31
1764750851.054643,1.39
1764750851.06097,1.39
1764750851.067185,1.31
1764750851.073473,1.37
1764750851.079675,1.35
1764750851.0859342,1.36
1764750851.092136,1.38
1764750851.098356,1.34
1764750851.1047099,1.41
1764750851.1108322,1.41
1764750851.117101,1.35
1764750851.12339,1.41
1764750851.12973,1.36
1764750851.136031,1.39
1764750851.142076,1.44
1764750851.148313,1.34
1764750851.1546721,1.38
1764750851.160821,1.42
1764750851.167142,1.37
1764750851.1733792,1.41
1764750851.179647,1.35
1764750851.1858912,1.38
1764750851.192079,1.42
1764750851.198476,1.32
1764750851.204579,1.37
1764750851.210839,1.38
1764750851.217173,1.32
1764750851.223392,1.38
1764750851.2296362,1.36
1764750851.2358248,1.38
1764750851.2421172,1.38
1764750851.2483141,1.33
1764750851.2546518,1.4
1764750851.260874,1.39
1764750851.267186,1.32
1764750851.2733371,1.4
1764750851.279638,1.37
1764750851.285932,1.36
1764750851.292156,1.39
1764750851.2982929,1.33
1764750851.304558,1.38
1764750851.31086,1.43
1764750851.317163,1.44
1764750851.32337,1.53
1764750851.329587,1.49
1764750851.335913,1.56
1764750851.342091,1.55
1764750851.34845,1.44
1764750851.354578,1.46
1764750851.3608608,1.48
1764750851.36717,1.41
1764750851.373363,1.37
1764750851.379617,1.3
1764750851.385876,1.32
1764750851.3920681,1.37
1764750851.39835,1.28
1764750851.4046159,1.34
1764750851.4108958,1.35
1764750851.417038,1.29
1764750851.423338,1.36
1764750851.429578,1.32
1764750851.435931,1.34
1764750851.442127,1.39
1764750851.4652328,1.31
1764750851.465439,1.36
1764750851.46559,1.36
1764750851.481507,1.4
1764750851.5034869,1.74
1764750851.51312,2.36
1764750851.527953,2.86
1764750851.528605,2.79
1764750851.528748,1.94
1764750851.529515,0.97
1764750851.529643,1.07
1764750851.529747,1.44
1764750851.5298629,1.46
1764750851.530626,1.3
1764750851.535839,1.33
1764750851.542186,1.4
1764750851.548291,1.3
1764750851.5556679,1.36
1764750851.560808,1.38
1764750851.5670662,1.33
1764750851.57332,1.39
1764750851.579668,1.35
1764750851.585879,1.4
1764750851.592012,1.46
1764750851.598289,1.35
1764750851.604612,1.4
1764750851.6109161,1.46
1764750851.617005,1.42
1764750851.623318,1.47
1764750851.6297102,1.42
1764750851.63576,1.45
1764750851.642103,1.51
1764750851.648347,1.45
1764750851.654576,1.52
1764750851.660831,1.53
1764750851.667017,1.48
1764750851.673218,1.57
1764750851.679677,1.56
1764750851.685847,1.56
1764750851.69201,1.6
1764750851.6983051,1.55
1764750851.704585,1.62
1764750851.710756,1.63
1764750851.7169669,1.58
1764750851.723315,1.66
1764750851.729675,1.61
1764750851.73584,1.61
1764750851.742003,1.65
1764750851.748239,1.56
1764750851.754515,1.59
1764750851.760779,1.56
1764750851.766946,1.49
1764750851.7732182,1.55
1764750851.779534,1.5
1764750851.7858188,1.46
1764750851.7919948,1.5
1764750851.798212,1.43
1764750851.8044958,1.49
1764750851.810739,1.48
1764750851.816959,1.43
1764750851.823317,1.52
1764750851.82954,1.48
1764750851.835766,1.46
1764750851.842047,1.51
1764750851.848274,1.48
1764750851.854555,1.52
1764750851.8607502,1.52
1764750851.8669078,1.5
1764750851.873232,1.58
1764750851.8795269,1.52
1764750851.8857548,1.51
1764750851.891998,1.54
1764750851.8981838,1.52
1764750851.90446,1.59
1764750851.9107258,1.56
1764750851.916987,1.51
1764750851.923258,1.58
1764750851.929479,1.54
1764750851.935719,1.55
1764750851.941941,1.59
1764750851.9482071,1.51
1764750851.954541,1.56
1764750851.961022,1.57
1764750851.966966,1.51
1764750851.973326,1.57
1764750851.9794738,1.53
1764750851.985798,1.54
1764750851.9919739,1.59
1764750851.998184,1.52
1764750852.004436,1.59
1764750852.010941,1.59
1764750852.016881,1.53
1764750852.023208,1.59
1764750852.02943,1.56
1764750852.0357592,1.56
1764750852.04209,1.61
1764750852.048245,1.55
1764750852.054584,1.59
1764750852.061203,1.57
1764750852.067084,1.55
1764750852.073337,1.63
1764750852.079445,1.55
1764750852.0857,1.56
1764750852.091972,1.61
1764750852.0981739,1.55
1764750852.1044312,1.6
1764750852.110697,1.63
1764750852.1169338,1.67
1764750852.123172,1.77
1764750852.129411,1.68
1764750852.135722,1.71
1764750852.142006,1.89
1764750852.148175,1.77
1764750852.15441,1.72
1764750852.160882,1.71
1764750852.166899,1.69
1764750852.1732008,1.68
1764750852.1794071,1.56
1764750852.185745,1.54
1764750852.191898,1.6
1764750852.1981802,1.53
1764750852.204418,1.56
1764750852.2111082,1.56
1764750852.2169878,1.54
1764750852.2231538,1.63
1764750852.229621,1.56
1764750852.235786,1.55
1764750852.242045,1.61
1764750852.248217,1.58
1764750852.2544808,1.62
1764750852.261014,1.57
1764750852.267052,1.54
1764750852.273248,1.71
1764750852.279497,1.9
1764750852.28578,2.53
1764750852.2920032,3.14
1764750852.298208,3.03
1764750852.3043892,2.36
1764750852.310817,1.19
1764750852.316899,1.19
1764750852.323194,1.74
1764750852.32945,1.67
1764750852.335851,1.53
1764750852.341973,1.59
1764750852.348267,1.56
1764750852.354442,1.6
1764750852.360994,1.6
1764750852.367003,1.55
1764750852.373292,1.61
1764750852.3794188,1.56
1764750852.385708,1.6
1764750852.391913,1.65
1764750852.3981,1.57
1764750852.404384,1.63
1764750852.410707,1.62
1764750852.416824,1.59
1764750852.423191,1.68
1764750852.429398,1.62
1764750852.435675,1.65
1764750852.441972,1.7
1764750852.448112,1.64
1764750852.454379,1.7
1764750852.4612732,1.7
1764750852.466805,1.7
1764750852.473193,1.77
1764750852.479383,1.7
1764750852.4856179,1.74
1764750852.491884,1.81
1764750852.498116,1.72
1764750852.504368,1.78
1764750852.51075,1.83
1764750852.5168,1.78
1764750852.5231261,1.82
1764750852.529407,1.78
1764750852.535618,1.8
1764750852.542018,1.84
1764750852.548126,1.75
1764750852.55442,1.79
1764750852.5606341,1.77
1764750852.566944,1.7
1764750852.5731509,1.74
1764750852.579382,1.67
1764750852.58561,1.65
1764750852.592053,1.67
1764750852.598252,1.58
1764750852.604414,1.61
1764750852.611163,1.64
1764750852.616883,1.59
1764750852.623242,1.65
1764750852.629479,1.59
1764750852.63577,1.6
1764750852.641946,1.66
1764750852.648094,1.56
1764750852.654413,1.63
1764750852.661083,1.66
1764750852.66694,1.61
1764750852.673273,1.65
1764750852.6793659,1.61
1764750852.6855931,1.64
1764750852.6919029,1.69
1764750852.698116,1.6
1764750852.704382,1.65
1764750852.7106218,1.68
1764750852.7168598,1.62
1764750852.723191,1.66
1764750852.729352,1.64
1764750852.735646,1.64
1764750852.741811,1.66
1764750852.7481291,1.61
1764750852.7543218,1.67
1764750852.760894,1.66
1764750852.7667992,1.6
1764750852.773113,1.67
1764750852.7793589,1.62
1764750852.785652,1.62
1764750852.791832,1.66
1764750852.798081,1.61
1764750852.804312,1.64
1764750852.810636,1.61
1764750852.816839,1.61
1764750852.823051,1.7
1764750852.8293078,1.6
1764750852.835553,1.6
1764750852.841822,1.65
1764750852.848018,1.6
1764750852.854408,1.65
1764750852.860607,1.65
1764750852.8667278,1.6
1764750852.8730571,1.67
1764750852.879284,1.58
1764750852.8855062,1.58
1764750852.8918378,1.67
1764750852.898009,1.62
1764750852.904233,1.63
1764750852.910748,1.64
1764750852.916796,1.61
1764750852.9229991,1.67
1764750852.938194,1.63
1764750852.938519,1.72
1764750852.9427578,1.8
1764750852.9505339,1.7
1764750852.97739,1.82
1764750852.979438,1.87
1764750852.979553,1.73
1764750852.979637,1.76
1764750852.979717,1.74
1764750852.992933,1.73
1764750852.993547,1.68
1764750853.0011141,1.54
1764750853.009815,1.6
1764750853.014847,1.61
1764750853.016769,1.55
1764750853.023029,1.63
1764750853.030008,1.58
1764750853.0369961,1.58
1764750853.041759,1.62
1764750853.048005,1.55
1764750853.0542169,1.62
1764750853.060705,1.63
1764750853.0668108,1.6
1764750853.073119,1.64
1764750853.0792162,1.56
1764750853.0854552,1.61
1764750853.0917308,1.79
1764750853.0979378,2.11
1764750853.104199,2.87
1764750853.1107788,3.12
1764750853.116707,2.8
1764750853.1229591,1.8
1764750853.129195,1.04
1764750853.135464,1.45
1764750853.1417758,1.77
1764750853.147995,1.58
1764750853.154241,1.57
1764750853.161804,1.6
1764750853.166688,1.56
1764750853.173026,1.6
1764750853.179209,1.56
1764750853.1854799,1.56
1764750853.1917381,1.59
1764750853.1979342,1.55
1764750853.2041962,1.62
1764750853.210527,1.57
1764750853.21667,1.55
1764750853.222931,1.63
1764750853.229138,1.56
1764750853.235434,1.58
1764750853.241729,1.65
1764750853.247905,1.57
1764750853.254227,1.65
1764750853.260492,1.67
1764750853.266811,1.61
1764750853.273002,1.68
1764750853.279262,1.65
1764750853.285401,1.67
1764750853.291698,1.7
1764750853.2978811,1.65
1764750853.304171,1.72
1764750853.3105621,1.72
1764750853.316732,1.67
1764750853.322957,1.76
1764750853.3291662,1.71
1764750853.335561,1.72
1764750853.341692,1.77
1764750853.347919,1.72
1764750853.354147,1.78
1764750853.360776,1.76
1764750853.366824,1.67
1764750853.372875,1.74
1764750853.379211,1.68
1764750853.385397,1.61
1764750853.391763,1.64
1764750853.397896,1.57
1764750853.40413,1.63
1764750853.410995,1.58
1764750853.4166772,1.5
1764750853.4230158,1.56
1764750853.429215,1.51
1764750853.435391,1.53
1764750853.4417741,1.55
1764750853.447958,1.46
1764750853.454112,1.54
1764750853.460611,1.57
1764750853.466657,1.48
1764750853.472927,1.54
1764750853.4792,1.55
1764750853.4854379,1.56
1764750853.491692,1.56
1764750853.497878,1.5
1764750853.504135,1.59
1764750853.510525,1.58
1764750853.516608,1.51
1764750853.5228758,1.59
1764750853.529126,1.55
1764750853.535485,1.54
1764750853.541706,1.57
1764750853.54793,1.52
1764750853.554106,1.55
1764750853.560523,1.56
1764750853.566528,1.54
1764750853.5729542,1.57
1764750853.579102,1.51
1764750853.585424,1.51
1764750853.591648,1.55
1764750853.5978491,1.48
1764750853.6041331,1.55
1764750853.6105652,1.54
1764750853.6165571,1.5
1764750853.622826,1.57
1764750853.6291,1.51
1764750853.635423,1.5
1764750853.6416252,1.54
1764750853.6478982,1.5
1764750853.654125,1.54
1764750853.6605399,1.51
1764750853.6665668,1.48
1764750853.673001,1.55
1764750853.6791072,1.51
1764750853.6854131,1.56
1764750853.691659,1.66
1764750853.697803,1.59
1764750853.704105,1.64
1764750853.710405,1.74
1764750853.716565,1.74
1764750853.722914,1.74
1764750853.729165,1.61
1764750853.735479,1.63
1764750853.741599,1.66
1764750853.74793,1.47
1764750853.754167,1.49
1764750853.7605498,1.5
1764750853.7665331,1.44
1764750853.7728949,1.52
1764750853.779194,1.42
1764750853.7853959,1.43
1764750853.79161,1.51
1764750853.797879,1.44
1764750853.804349,1.51
1764750853.810461,1.5
1764750853.816542,1.44
1764750853.822915,1.52
1764750853.829171,1.48
1764750853.835458,1.47
1764750853.8415658,1.55
1764750853.847853,1.61
1764750853.854304,2.11
1764750853.86056,2.86
1764750853.8665862,2.98
