timestamp,ecg_value
1764750903.2595992,1.58
1764750903.2658749,1.66
1764750903.271994,1.6
1764750903.278311,1.62
1764750903.284498,1.63
1764750903.290851,1.58
1764750903.2969558,1.67
1764750903.303307,1.65
1764750903.309559,1.61
1764750903.315789,1.64
1764750903.3221061,1.58
1764750903.328287,1.64
1764750903.334501,1.68
1764750903.3409941,1.59
1764750903.346963,1.63
1764750903.353301,1.63
1764750903.359649,1.57
1764750903.365851,1.6
1764750903.372143,1.6
1764750903.3784058,1.58
1764750903.384511,1.58
1764750903.3918238,1.53
1764750903.397148,1.6
1764750903.4033449,1.55
1764750903.409576,1.53
1764750903.4158049,1.61
1764750903.422086,1.55
1764750903.428291,1.55
1764750903.4344692,1.6
1764750903.441035,1.53
1764750903.4469419,1.58
1764750903.453239,1.59
1764750903.459517,1.6
1764750903.4659488,1.63
1764750903.472111,1.53
1764750903.478283,1.62
1764750903.484501,1.66
1764750903.490967,1.54
1764750903.497067,1.65
1764750903.503262,1.69
1764750903.509481,1.57
1764750903.5157719,1.56
1764750903.522061,1.52
1764750903.528228,1.59
1764750903.534482,1.67
1764750903.5411022,1.64
1764750903.546941,1.71
1764750903.5532029,1.72
1764750903.559506,1.79
1764750903.565771,1.89
1764750903.572155,1.78
1764750903.578291,1.77
1764750903.5845041,1.9
1764750903.590986,1.65
1764750903.596906,1.47
1764750903.603227,1.51
1764750903.609499,1.52
1764750903.615723,1.54
1764750903.621995,1.45
1764750903.628194,1.49
1764750903.634416,1.55
1764750903.64083,1.49
1764750903.646915,1.53
1764750903.6532118,1.49
1764750903.6594932,1.5
1764750903.6658602,1.57
1764750903.672016,1.5
1764750903.678339,1.47
1764750903.684528,1.5
1764750903.690876,1.57
1764750903.6969469,1.96
1764750903.703393,2.68
1764750903.70963,3.14
1764750903.715681,3.03
1764750903.721929,1.89
1764750903.7282,0.9
1764750903.734532,1.34
1764750903.741055,1.69
1764750903.746891,1.58
1764750903.753212,1.45
1764750903.75949,1.46
1764750903.765719,1.54
1764750903.772033,1.47
1764750903.7781959,1.47
1764750903.784608,1.53
1764750903.7916749,1.47
1764750903.7968938,1.54
1764750903.803207,1.55
1764750903.8095622,1.51
1764750903.815734,1.56
1764750903.821861,1.52
1764750903.828202,1.56
1764750903.8344269,1.59
1764750903.84068,1.52
1764750903.847075,1.57
1764750903.8532171,1.59
1764750903.8595798,1.56
1764750903.865696,1.6
1764750903.871881,1.58
1764750903.878245,1.61
1764750903.884413,1.63
1764750903.890661,1.59
1764750903.896914,1.65
1764750903.903157,1.62
1764750903.9094348,1.59
1764750903.915699,1.68
1764750903.922186,1.65
1764750903.928257,1.64
1764750903.93455,1.63
1764750903.9406579,1.59
1764750903.94695,1.66
1764750903.953224,1.66
1764750903.959449,1.62
1764750903.965667,1.68
1764750903.9719481,1.61
1764750903.9781618,1.58
1764750903.984502,1.66
1764750903.9918542,1.6
1764750903.9968572,1.61
1764750904.0032032,1.58
1764750904.009404,1.54
1764750904.0156522,1.61
1764750904.021971,1.55
1764750904.028113,1.55
1764750904.0344021,1.6
1764750904.041046,1.56
1764750904.046967,1.59
1764750904.0531032,1.55
1764750904.059364,1.55
1764750904.065608,1.61
1764750904.0720372,1.55
1764750904.078059,1.59
1764750904.0844102,1.62
1764750904.0910451,1.56
1764750904.0968618,1.66
1764750904.1031868,1.63
1764750904.109437,1.55
1764750904.1155899,1.65
1764750904.1219342,1.6
1764750904.1280901,1.55
1764750904.1343622,1.6
1764750904.1407502,1.56
1764750904.165487,1.59
1764750904.165647,1.57
1764750904.165787,1.53
1764750904.176297,1.61
1764750904.177352,1.54
1764750904.178333,1.55
1764750904.2069278,1.62
1764750904.20702,1.63
1764750904.207102,1.71
1764750904.214946,1.67
1764750904.23293,1.66
1764750904.2372649,1.85
1764750904.237817,1.86
1764750904.237886,1.74
1764750904.238056,1.71
1764750904.240623,1.67
1764750904.258086,1.61
1764750904.259,1.52
1764750904.259329,1.52
1764750904.265631,1.54
1764750904.2719302,1.41
1764750904.278162,1.48
1764750904.2854981,1.55
1764750904.2907772,1.46
1764750904.296895,1.46
1764750904.303114,1.46
1764750904.309388,1.47
1764750904.315618,1.53
1764750904.321923,1.47
1764750904.328257,1.48
1764750904.334369,1.52
1764750904.34062,1.51
1764750904.346901,1.67
1764750904.353211,2.13
1764750904.359369,2.86
1764750904.3656151,3.1
1764750904.371948,2.62
1764750904.3781161,1.52
1764750904.384358,1.05
1764750904.3906019,1.4
1764750904.396847,1.65
1764750904.4030871,1.52
1764750904.4094532,1.41
1764750904.415594,1.51
1764750904.421816,1.46
1764750904.428145,1.47
1764750904.4343,1.53
1764750904.4405508,1.48
1764750904.4468522,1.52
1764750904.453006,1.52
1764750904.459384,1.47
1764750904.4655511,1.54
1764750904.472546,1.52
1764750904.4805918,1.52
1764750904.484376,1.56
1764750904.49087,1.48
1764750904.496779,1.56
1764750904.5030022,1.58
1764750904.509404,1.51
1764750904.515557,1.6
1764750904.5218198,1.58
1764750904.528019,1.58
1764750904.534245,1.62
1764750904.5405629,1.59
1764750904.546761,1.64
1764750904.553069,1.59
1764750904.559229,1.56
1764750904.5657759,1.67
1764750904.571755,1.64
1764750904.578059,1.6
1764750904.5842319,1.63
1764750904.5905821,1.59
1764750904.596765,1.63
1764750904.603022,1.6
1764750904.6091971,1.61
1764750904.615533,1.68
1764750904.621823,1.6
1764750904.6279209,1.6
1764750904.634269,1.61
1764750904.640793,1.55
1764750904.646805,1.63
1764750904.6529999,1.61
1764750904.659277,1.56
1764750904.665497,1.59
1764750904.671801,1.54
1764750904.677936,1.57
1764750904.684302,1.61
1764750904.6905012,1.54
1764750904.696785,1.58
1764750904.702914,1.59
1764750904.709213,1.53
1764750904.715513,1.62
1764750904.721793,1.59
1764750904.727944,1.6
1764750904.7342012,1.64
1764750904.740486,1.57
1764750904.746738,1.59
1764750904.753006,1.61
1764750904.759756,1.59
1764750904.765428,1.64
1764750904.771861,1.58
1764750904.778108,1.59
1764750904.784296,1.64
1764750904.790515,1.58
1764750904.79689,1.61
1764750904.802989,1.59
1764750904.8093991,1.57
1764750904.8155231,1.64
1764750904.821714,1.57
1764750904.827967,1.56
1764750904.8342772,1.61
1764750904.840626,1.6
1764750904.846872,1.71
1764750904.853019,1.71
1764750904.8592,1.66
1764750904.8654988,1.84
1764750904.8720288,1.87
1764750904.878003,1.84
1764750904.8842099,1.78
1764750904.890662,1.72
1764750904.896805,1.7
1764750904.903127,1.57
1764750904.909295,1.52
1764750904.9154181,1.56
1764750904.921895,1.47
1764750904.927883,1.46
1764750904.934228,1.51
1764750904.940466,1.47
1764750904.946754,1.52
1764750904.952987,1.49
1764750904.9592772,1.46
1764750904.9654,1.54
1764750904.971794,1.51
1764750904.9779341,1.48
1764750904.984247,1.49
1764750904.9904299,1.47
1764750904.996695,1.64
1764750905.003052,2.01
1764750905.009314,2.75
1764750905.0154161,3.12
1764750905.021735,2.77
1764750905.0279832,1.68
1764750905.034282,0.98
1764750905.040593,1.36
1764750905.0468612,1.7
1764750905.052983,1.51
1764750905.059166,1.36
1764750905.06549,1.52
1764750905.071973,1.51
1764750905.077905,1.46
1764750905.0841548,1.51
1764750905.09044,1.5
1764750905.0967438,1.52
1764750905.1029062,1.51
1764750905.109154,1.5
1764750905.115617,1.54
1764750905.12172,1.48
1764750905.1278179,1.52
1764750905.138699,1.6
1764750905.1404312,1.51
1764750905.14671,1.54
1764750905.15293,1.58
1764750905.190227,1.55
1764750905.210696,1.6
1764750905.212914,1.58
1764750905.2377331,1.56
1764750905.237823,1.63
1764750905.237903,1.59
1764750905.2415302,1.61
1764750905.241747,1.62
1764750905.24192,1.61
1764750905.2420192,1.68
1764750905.242404,1.61
1764750905.2425659,1.61
1764750905.242712,1.64
1764750905.242861,1.58
1764750905.252693,1.65
1764750905.2573912,1.64
1764750905.2702641,1.6
1764750905.270772,1.67
1764750905.272792,1.63
1764750905.277863,1.59
1764750905.284218,1.65
1764750905.290549,1.59
1764750905.2966678,1.6
1764750905.30337,1.58
1764750905.309263,1.57
1764750905.315464,1.61
1764750905.321903,1.54
1764750905.327959,1.55
1764750905.334281,1.57
1764750905.340436,1.5
1764750905.3467,1.58
1764750905.352951,1.61
1764750905.3592331,1.56
1764750905.365429,1.63
1764750905.3725262,1.58
1764750905.377985,1.58
1764750905.384222,1.64
1764750905.3904169,1.6
1764750905.396615,1.62
1764750905.4028852,1.62
1764750905.409167,1.55
1764750905.415684,1.61
1764750905.421838,1.61
1764750905.427912,1.57
1764750905.434164,1.6
1764750905.44052,1.59
1764750905.446733,1.63
1764750905.452884,1.61
1764750905.4591308,1.55
1764750905.4653492,1.6
1764750905.471769,1.56
1764750905.477848,1.58
1764750905.484169,1.62
1764750905.490446,1.55
1764750905.496615,1.6
1764750905.502984,1.6
1764750905.509075,1.53
1764750905.515401,1.58
1764750905.521684,1.57
1764750905.527818,1.62
1764750905.534147,1.74
1764750905.5404532,1.68
1764750905.546658,1.69
1764750905.5530639,1.81
1764750905.559145,1.87
1764750905.565362,1.89
1764750905.572049,1.76
1764750905.57807,1.74
1764750905.584204,1.72
1764750905.5903249,1.52
1764750905.5965471,1.57
1764750905.6028202,1.58
1764750905.609096,1.48
1764750905.6153338,1.51
1764750905.6220942,1.49
1764750905.6278248,1.49
1764750905.634269,1.51
1764750905.64054,1.46
1764750905.64655,1.53
1764750905.652957,1.53
1764750905.659018,1.48
1764750905.665374,1.52
1764750905.671597,1.48
1764750905.677738,1.5
1764750905.684098,1.66
1764750905.69036,1.96
1764750905.6966789,2.74
1764750905.702752,3.1
1764750905.7095191,2.74
1764750905.715322,1.74
1764750905.72207,0.96
1764750905.727912,1.35
1764750905.734032,1.71
1764750905.740341,1.47
1764750905.746479,1.43
1764750905.752824,1.53
1764750905.7589939,1.47
1764750905.765258,1.5
1764750905.771623,1.45
1764750905.77775,1.48
1764750905.783966,1.53
1764750905.790279,1.48
1764750905.796483,1.51
1764750905.802696,1.54
1764750905.808956,1.51
1764750905.815261,1.55
1764750905.821651,1.54
1764750905.827805,1.52
1764750905.8340092,1.56
1764750905.8404212,1.53
1764750905.846515,1.58
1764750905.8527849,1.6
1764750905.859148,1.53
1764750905.865388,1.61
1764750905.871584,1.62
1764750905.8777752,1.61
1764750905.8840268,1.62
1764750905.8903072,1.6
1764750905.8965151,1.69
1764750905.902826,1.67
1764750905.908997,1.6
1764750905.915244,1.67
1764750905.9219358,1.64
1764750905.9278169,1.62
1764750905.9340138,1.68
1764750905.940352,1.64
1764750905.946573,1.67
1764750905.952755,1.65
1764750905.959614,1.61
1764750905.965226,1.68
1764750905.971862,1.62
1764750905.977696,1.6
1764750905.983948,1.62
1764750905.990269,1.54
1764750905.996402,1.6
1764750906.0027251,1.58
1764750906.008926,1.53
1764750906.015349,1.59
1764750906.021496,1.56
1764750906.027692,1.55
1764750906.033947,1.59
1764750906.040268,1.53
1764750906.046488,1.58
1764750906.0527098,1.61
1764750906.0590248,1.55
1764750906.0655591,1.6
1764750906.071601,1.59
1764750906.077664,1.6
1764750906.083988,1.63
1764750906.0902588,1.56
1764750906.096423,1.61
1764750906.102684,1.63
1764750906.108974,1.59
1764750906.115236,1.63
1764750906.1216488,1.57
1764750906.127706,1.56
1764750906.1339562,1.61
1764750906.140235,1.56
1764750906.14644,1.59
1764750906.152677,1.59
1764750906.158941,1.55
1764750906.165243,1.62
1764750906.1715379,1.56
1764750906.177825,1.56
1764750906.184003,1.63
1764750906.190332,1.57
1764750906.196447,1.6
1764750906.202718,1.59
1764750906.208972,1.53
1764750906.215428,1.61
1764750906.2215161,1.58
1764750906.227668,1.64
1764750906.233968,1.75
1764750906.240171,1.65
1764750906.246448,1.7
1764750906.252668,1.89
1764750906.25899,1.87
1764750906.2652469,1.8
1764750906.2714639,1.73
1764750906.277705,1.75
1764750906.2838662,1.67
1764750906.290196,1.52
1764750906.296407,1.56
1764750906.302599,1.53
1764750906.30889,1.48
1764750906.315069,1.54
1764750906.321408,1.52
1764750906.327633,1.5
1764750906.333944,1.52
1764750906.340254,1.47
1764750906.3463922,1.53
1764750906.352611,1.56
1764750906.3589609,1.5
1764750906.365173,1.53
1764750906.371424,1.52
1764750906.377714,1.58
1764750906.383957,1.86
1764750906.390241,2.44
1764750906.3963132,3.04
1764750906.402944,2.95
1764750906.408941,2.17
1764750906.415311,1.17
1764750906.42159,1.18
1764750906.427704,1.61
1764750906.43408,1.64
1764750906.440285,1.42
1764750906.446549,1.46
1764750906.452794,1.54
1764750906.458886,1.47
1764750906.465195,1.52
1764750906.471467,1.51
1764750906.477636,1.49
1764750906.483934,1.55
1764750906.4901602,1.49
1764750906.4963078,1.52
1764750906.5026639,1.56
1764750906.508981,1.53
1764750906.515096,1.56
1764750906.521426,1.53
1764750906.527609,1.56
1764750906.533942,1.62
1764750906.540159,1.56
1764750906.5463629,1.6
1764750906.5526478,1.59
1764750906.5615401,1.56
1764750906.600544,1.66
1764750906.642195,1.64
1764750906.6426802,1.59
1764750906.6428192,1.64
1764750906.64329,1.62
1764750906.643473,1.67
1764750906.64364,1.67
1764750906.643805,1.63
1764750906.644089,1.69
1764750906.644449,1.64
1764750906.644827,1.62
1764750906.6451662,1.69
1764750906.6454551,1.62
1764750906.646504,1.64
1764750906.6527832,1.66
1764750906.660838,1.62
1764750906.665052,1.64
1764750906.672757,1.6
1764750906.6776168,1.6
1764750906.684532,1.64
1764750906.6902468,1.55
1764750906.696396,1.54
1764750906.702761,1.54
1764750906.708877,1.53
1764750906.715042,1.58
1764750906.7213628,1.53
1764750906.727596,1.52
1764750906.733757,1.59
1764750906.7401412,1.54
1764750906.746277,1.58
1764750906.752674,1.61
1764750906.7587788,1.54
1764750906.765142,1.59
1764750906.771363,1.56
1764750906.777784,1.55
1764750906.7837389,1.62
1764750906.790037,1.58
1764750906.7963111,1.64
1764750906.802561,1.57
1764750906.8087838,1.52
1764750906.815072,1.65
1764750906.821388,1.61
1764750906.8275359,1.54
1764750906.833971,1.6
1764750906.8402839,1.56
1764750906.846418,1.58
1764750906.852635,1.58
1764750906.858942,1.54
1764750906.865154,1.59
1764750906.871467,1.53
1764750906.877601,1.53
1764750906.88398,1.59
1764750906.8901918,1.55
1764750906.896412,1.62
1764750906.90264,1.68
1764750906.9088771,1.67
1764750906.915169,1.71
1764750906.921355,1.74
1764750906.927715,1.83
1764750906.9337559,1.88
1764750906.940043,1.73
1764750906.9463491,1.76
1764750906.952539,1.73
1764750906.958781,1.51
1764750906.965017,1.55
1764750906.9713972,1.55
1764750906.977522,1.45
1764750906.9837482,1.49
1764750906.990119,1.5
1764750906.99634,1.5
1764750907.002605,1.48
1764750907.009038,1.46
1764750907.0149682,1.53
1764750907.021308,1.47
1764750907.0274408,1.42
1764750907.033707,1.53
1764750907.040319,1.49
1764750907.046249,1.52
1764750907.052667,1.63
1764750907.0587552,1.95
1764750907.065002,2.73
1764750907.07144,3.05
1764750907.077506,2.73
1764750907.083766,1.82
1764750907.091481,0.97
1764750907.096182,1.32
1764750907.1024718,1.66
1764750907.108695,1.49
1764750907.115031,1.44
1764750907.1213062,1.48
1764750907.1274638,1.5
1764750907.1336372,1.51
1764750907.140139,1.41
1764750907.146239,1.49
1764750907.152493,1.52
1764750907.15873,1.47
1764750907.1650171,1.52
1764750907.171249,1.51
1764750907.177514,1.5
1764750907.183635,1.56
1764750907.190103,1.52
1764750907.1961658,1.54
1764750907.202629,1.55
1764750907.208676,1.54
1764750907.215015,1.6
1764750907.221493,1.55
1764750907.227629,1.55
1764750907.233715,1.63
1764750907.2399812,1.57
1764750907.246424,1.6
1764750907.252482,1.63
1764750907.258776,1.59
1764750907.2649632,1.66
1764750907.271286,1.62
1764750907.277556,1.61
1764750907.2836869,1.67
1764750907.290072,1.61
1764750907.296136,1.67
1764750907.3025541,1.69
1764750907.3087518,1.61
1764750907.315,1.66
1764750907.3227232,1.62
1764750907.327452,1.61
1764750907.333653,1.67
1764750907.3401432,1.59
1764750907.3462248,1.61
1764750907.352504,1.63
1764750907.3587,1.52
1764750907.365015,1.56
1764750907.371445,1.58
1764750907.3774989,1.56
1764750907.3838122,1.56
1764750907.390294,1.51
1764750907.3962638,1.55
1764750907.402501,1.57
1764750907.408708,1.55
1764750907.415021,1.61
1764750907.421202,1.56
1764750907.427351,1.55
1764750907.433595,1.61
1764750907.43991,1.55
1764750907.446176,1.59
1764750907.452561,1.61
1764750907.458668,1.57
1764750907.46491,1.63
1764750907.471242,1.58
1764750907.477522,1.54
1764750907.483686,1.59
1764750907.4899452,1.57
1764750907.4961889,1.6
1764750907.502489,1.57
1764750907.508797,1.53
1764750907.515059,1.62
1764750907.521285,1.56
1764750907.527518,1.54
1764750907.533706,1.62
1764750907.539958,1.55
1764750907.546138,1.56
1764750907.552602,1.58
1764750907.5587,1.54
1764750907.5651011,1.63
1764750907.571519,1.67
1764750907.577448,1.66
1764750907.583649,1.7
1764750907.590039,1.7
1764750907.5964339,1.85
1764750907.602572,1.9
1764750907.60879,1.75
1764750907.614947,1.76
1764750907.621153,1.74
1764750907.6274061,1.62
1764750907.633813,1.58
1764750907.6401489,1.52
1764750907.646166,1.54
1764750907.6524448,1.51
1764750907.6586602,1.46
1764750907.664955,1.52
1764750907.671338,1.51
1764750907.677359,1.49
1764750907.6836648,1.52
1764750907.690034,1.48
1764750907.69633,1.51
1764750907.702538,1.52
1764750907.708641,1.48
1764750907.7149298,1.52
1764750907.7215319,1.57
1764750907.727354,1.77
1764750907.733572,2.47
1764750907.739895,3.0
1764750907.746092,2.93
1764750907.752373,2.26
1764750907.7585988,1.1
1764750907.7649322,1.15
1764750907.7712388,1.64
1764750907.777401,1.62
1764750907.7836,1.46
1764750907.789912,1.43
1764750907.796221,1.53
1764750907.8026948,1.53
1764750907.808661,1.46
1764750907.8151062,1.52
1764750907.822264,1.5
1764750907.8272882,1.48
1764750907.833589,1.56
1764750907.839893,1.52
1764750907.846089,1.54
1764750907.852448,1.55
1764750907.858616,1.49
1764750907.8649259,1.59
1764750907.8712041,1.57
1764750907.877389,1.54
1764750907.8835719,1.59
1764750907.890087,1.54
1764750907.8962162,1.58
1764750907.902602,1.63
1764750907.9086149,1.58
1764750907.914867,1.64
1764750907.9212348,1.62
1764750907.927381,1.62
1764750907.933582,1.66
1764750907.9399629,1.6
1764750907.9461288,1.66
1764750907.9523468,1.69
1764750907.958727,1.61
1764750907.964888,1.67
1764750907.971071,1.68
1764750907.977242,1.64
1764750907.983524,1.66
1764750907.989828,1.64
1764750907.996018,1.65
1764750908.002444,1.64
1764750908.008676,1.6
1764750908.014835,1.64
1764750908.021101,1.59
1764750908.027285,1.56
1764750908.033577,1.58
1764750908.039914,1.53
1764750908.046129,1.58
1764750908.05228,1.59
1764750908.058626,1.5
1764750908.0648162,1.55
1764750908.0711622,1.56
1764750908.0772932,1.53
1764750908.083595,1.56
1764750908.089961,1.52
1764750908.096085,1.58
1764750908.102398,1.61
1764750908.1086981,1.53
1764750908.11478,1.6
1764750908.12128,1.61
1764750908.127342,1.55
1764750908.1335738,1.6
1764750908.143608,1.56
1764750908.1689842,1.59
1764750908.171675,1.59
1764750908.171832,1.54
1764750908.171978,1.6
1764750908.172151,1.57
1764750908.1977339,1.53
1764750908.2030232,1.58
1764750908.207659,1.55
1764750908.208674,1.57
1764750908.208829,1.58
1764750908.215752,1.55
1764750908.21588,1.58
1764750908.227905,1.56
1764750908.228051,1.55
1764750908.233809,1.6
1764750908.243989,1.53
1764750908.246495,1.55
1764750908.252484,1.58
1764750908.258655,1.56
1764750908.2754261,1.68
1764750908.275657,1.68
1764750908.27728,1.63
1764750908.283669,1.77
1764750908.289997,1.82
1764750908.296136,1.83
1764750908.302336,1.77
1764750908.3086028,1.71
1764750908.314803,1.71
1764750908.321051,1.54
1764750908.3273149,1.52
1764750908.333575,1.56
1764750908.33987,1.46
1764750908.346026,1.48
1764750908.352695,1.52
1764750908.3585851,1.46
1764750908.364795,1.51
1764750908.371187,1.49
1764750908.377259,1.48
1764750908.383512,1.54
1764750908.389878,1.5
1764750908.396034,1.52
1764750908.4026282,1.49
1764750908.408538,1.47
1764750908.414828,1.66
1764750908.4212449,1.96
1764750908.427278,2.64
1764750908.433533,3.12
1764750908.439808,2.83
1764750908.445937,1.83
1764750908.452346,0.99
1764750908.458551,1.27
1764750908.4647522,1.71
1764750908.471019,1.58
1764750908.4771972,1.42
1764750908.483501,1.48
1764750908.489792,1.49
1764750908.4960608,1.52
1764750908.502343,1.51
1764750908.5083861,1.44
1764750908.5146859,1.54
1764750908.521543,1.52
1764750908.527387,1.47
1764750908.533479,1.56
1764750908.539856,1.51
1764750908.546092,1.5
1764750908.553385,1.55
1764750908.5584939,1.54
1764750908.565038,1.58
1764750908.571002,1.57
1764750908.577253,1.55
1764750908.583773,1.61
1764750908.5897212,1.56
1764750908.5961118,1.6
1764750908.6023822,1.63
1764750908.6084511,1.6
1764750908.6148071,1.64
1764750908.621081,1.61
1764750908.627282,1.62
1764750908.6335628,1.7
1764750908.639704,1.65
1764750908.646016,1.66
1764750908.6523762,1.66
1764750908.658457,1.62
1764750908.664709,1.68
1764750908.6711402,1.65
1764750908.677444,1.64
1764750908.683599,1.7
1764750908.689743,1.62
1764750908.696188,1.62
1764750908.7023711,1.65
1764750908.708661,1.59
1764750908.7146611,1.6
1764750908.722579,1.57
1764750908.727318,1.54
1764750908.733482,1.58
1764750908.7402508,1.54
1764750908.7459881,1.55
1764750908.7522602,1.56
1764750908.7584589,1.52
1764750908.764645,1.55
1764750908.770995,1.55
1764750908.777144,1.55
1764750908.7834802,1.59
1764750908.789666,1.54
1764750908.7959921,1.57
1764750908.803311,1.59
1764750908.808438,1.54
1764750908.814718,1.61
1764750908.821135,1.6
1764750908.827171,1.57
1764750908.833558,1.61
1764750908.840217,1.54
1764750908.845954,1.58
1764750908.852169,1.62
1764750908.8583832,1.57
1764750908.864701,1.59
1764750908.871216,1.57
1764750908.8773131,1.58
1764750908.883507,1.6
1764750908.8897321,1.52
1764750908.8959239,1.56
1764750908.902216,1.59
1764750908.9084642,1.53
1764750908.9146821,1.59
1764750908.921003,1.58
1764750908.927341,1.54
1764750908.933401,1.59
1764750908.940202,1.55
1764750908.9459178,1.55
1764750908.9527302,1.58
1764750908.958359,1.53
1764750908.9645782,1.59
1764750908.970948,1.59
1764750908.977181,1.64
1764750908.9834251,1.73
1764750908.989731,1.63
1764750908.995836,1.73
1764750909.0036411,1.91
1764750909.008384,1.82
1764750909.014569,1.74
1764750909.021421,1.71
1764750909.0272949,1.73
1764750909.033386,1.64
1764750909.039674,1.5
1764750909.045851,1.54
1764750909.053906,1.55
1764750909.05834,1.45
1764750909.064644,1.51
1764750909.0710669,1.5
1764750909.077078,1.49
1764750909.083432,1.55
1764750909.089633,1.48
1764750909.095839,1.48
1764750909.1024482,1.5
1764750909.108407,1.47
1764750909.114651,1.51
1764750909.120984,1.46
1764750909.1271439,1.57
1764750909.133522,1.94
1764750909.139622,2.54
1764750909.145835,3.03
1764750909.1523032,2.89
1764750909.158504,1.98
1764750909.164667,1.05
1764750909.171013,1.26
1764750909.177113,1.65
1764750909.183454,1.61
1764750909.189685,1.41
1764750909.195916,1.44
1764750909.203385,1.52
1764750909.208407,1.47
1764750909.2146938,1.52
1764750909.221348,1.47
1764750909.2271638,1.43
1764750909.233304,1.53
1764750909.239528,1.5
1764750909.245813,1.48
1764750909.2520802,1.53
1764750909.258263,1.51
1764750909.264544,1.54
1764750909.27105,1.52
1764750909.277062,1.51
1764750909.283381,1.56
1764750909.289809,1.53
1764750909.295997,1.54
1764750909.302239,1.6
1764750909.308286,1.57
1764750909.314646,1.62
1764750909.3218,1.59
1764750909.327271,1.56
1764750909.333395,1.62
1764750909.339582,1.58
1764750909.345857,1.63
1764750909.3546948,1.67
1764750909.358377,1.61
1764750909.364566,1.65
1764750909.370903,1.64
1764750909.377032,1.61
1764750909.383373,1.65
1764750909.389573,1.62
1764750909.395734,1.66
1764750909.403125,1.66
1764750909.408258,1.58
1764750909.4145741,1.64
1764750909.4208121,1.64
1764750909.42698,1.55
1764750909.433429,1.56
1764750909.439492,1.54
1764750909.445694,1.58
1764750909.45225,1.59
1764750909.45836,1.51
1764750909.464669,1.55
1764750909.470865,1.55
1764750909.4772968,1.52
1764750909.483314,1.58
1764750909.489769,1.57
1764750909.495782,1.56
1764750909.502124,1.58
1764750909.5084941,1.54
1764750909.514691,1.6
1764750909.520894,1.59
1764750909.5270882,1.56
1764750909.53339,1.62
1764750909.539542,1.55
1764750909.545918,1.57
1764750909.552205,1.6
1764750909.558296,1.58
1764750909.564526,1.62
1764750909.570953,1.59
1764750909.5771148,1.55
1764750909.583359,1.6
1764750909.5895889,1.56
1764750909.5956638,1.58
1764750909.602697,1.61
1764750909.6083982,1.55
1764750909.614583,1.59
1764750909.620926,1.56
1764750909.6269991,1.55
1764750909.63325,1.6
1764750909.639462,1.54
1764750909.645817,1.59
1764750909.653219,1.61
1764750909.658219,1.52
1764750909.664544,1.59
1764750909.6709309,1.59
1764750909.67695,1.59
1764750909.6832159,1.71
1764750909.68944,1.64
1764750909.695698,1.65
1764750909.702698,1.82
1764750909.708147,1.85
1764750909.714427,1.83
1764750909.720766,1.74
1764750909.727016,1.73
1764750909.7332108,1.71
1764750909.73947,1.52
1764750909.7457201,1.55
1764750909.751997,1.59
1764750909.758361,1.47
1764750909.764493,1.5
1764750909.770762,1.52
1764750909.7769458,1.5
1764750909.783154,1.55
1764750909.7894568,1.51
1764750909.7956932,1.47
1764750909.802144,1.52
1764750909.808109,1.52
1764750909.8144908,1.55
1764750909.820771,1.51
1764750909.826924,1.52
1764750909.8331661,1.72
1764750909.8393831,2.08
1764750909.845738,2.79
1764750909.852384,3.1
1764750909.8581219,2.7
1764750909.86446,1.66
1764750909.8707998,1.06
1764750909.876982,1.38
1764750909.8832939,1.66
1764750909.88945,1.52
1764750909.895696,1.47
1764750909.903391,1.53
1764750909.908183,1.47
1764750909.914616,1.51
1764750909.9207308,1.52
1764750909.926856,1.45
1764750909.9332,1.54
1764750909.939471,1.55
1764750909.945864,1.52
1764750909.9542432,1.53
1764750909.958265,1.52
1764750909.9644191,1.58
1764750909.971062,1.54
1764750909.977045,1.52
1764750909.983485,1.6
1764750909.9923148,1.57
1764750910.023129,1.59
1764750910.0293708,1.63
1764750910.041365,1.58
1764750910.0527518,1.63
1764750910.059179,1.63
1764750910.0593212,1.6
1764750910.059411,1.67
1764750910.0594828,1.64
1764750910.059535,1.66
1764750910.059584,1.68
1764750910.059634,1.65
1764750910.0734,1.71
1764750910.073504,1.66
1764750910.076959,1.63
1764750910.0830982,1.69
1764750910.089545,1.66
1764750910.095637,1.68
1764750910.102081,1.69
1764750910.108185,1.63
1764750910.114524,1.69
1764750910.120847,1.67
1764750910.126904,1.61
1764750910.133323,1.64
1764750910.1395059,1.59
1764750910.145581,1.59
1764750910.1520178,1.62
1764750910.1582,1.55
1764750910.164364,1.6
1764750910.170632,1.57
1764750910.1769001,1.54
1764750910.183124,1.59
1764750910.189499,1.58
1764750910.195609,1.6
1764750910.20178,1.61
1764750910.208183,1.56
1764750910.2142951,1.61
1764750910.220692,1.6
1764750910.226879,1.57
1764750910.233145,1.64
1764750910.239328,1.61
1764750910.245572,1.62
1764750910.2518022,1.64
1764750910.258188,1.6
1764750910.264328,1.64
1764750910.2706182,1.61
1764750910.276913,1.57
1764750910.2830138,1.63
1764750910.289354,1.61
1764750910.295528,1.58
1764750910.301846,1.61
1764750910.307998,1.59
1764750910.314325,1.63
1764750910.320755,1.6
1764750910.326856,1.58
1764750910.333309,1.61
1764750910.3392918,1.58
1764750910.345679,1.61
1764750910.3518238,1.6
1764750910.3580558,1.53
1764750910.3642812,1.63
1764750910.370559,1.62
1764750910.376894,1.56
1764750910.383229,1.64
1764750910.389281,1.66
1764750910.39556,1.72
1764750910.401937,1.7
1764750910.408042,1.68
1764750910.414301,1.91
1764750910.4205692,1.93
1764750910.426848,1.77
1764750910.433077,1.77
1764750910.439264,1.76
1764750910.445556,1.64
1764750910.451796,1.58
1764750910.4580328,1.56
1764750910.464345,1.56
1764750910.470598,1.5
1764750910.476755,1.49
1764750910.48316,1.56
1764750910.489272,1.49
1764750910.495604,1.49
1764750910.501878,1.54
1764750910.5080252,1.5
1764750910.514349,1.55
1764750910.5207438,1.54
1764750910.5267541,1.5
1764750910.5331898,1.53
1764750910.53932,1.53
1764750910.545598,1.74
1764750910.551872,2.38
1764750910.558049,2.98
1764750910.5642939,2.97
1764750910.5705101,2.38
1764750910.57683,1.24
1764750910.5831192,1.13
1764750910.5892391,1.59
1764750910.595542,1.65
1764750910.60181,1.52
1764750910.607969,1.45
1764750910.614209,1.53
1764750910.620485,1.52
1764750910.6267898,1.49
1764750910.633047,1.56
1764750910.639267,1.51
1764750910.645518,1.53
1764750910.651756,1.56
1764750910.6580632,1.52
1764750910.664256,1.56
1764750910.6705868,1.58
1764750910.6767628,1.54
1764750910.682972,1.57
1764750910.6892622,1.55
1764750910.695504,1.57
1764750910.701733,1.61
1764750910.70804,1.55
1764750910.714265,1.62
1764750910.720521,1.63
1764750910.7268229,1.58
1764750910.73299,1.66
1764750910.7392159,1.64
1764750910.7455602,1.66
1764750910.75184,1.67
1764750910.758056,1.6
1764750910.764224,1.68
1764750910.770518,1.72
1764750910.776764,1.64
1764750910.782965,1.68
1764750910.789303,1.65
1764750910.795552,1.64
1764750910.801683,1.67
1764750910.807977,1.66
1764750910.814158,1.7
1764750910.820534,1.64
1764750910.826741,1.6
1764750910.83311,1.64
1764750910.839296,1.6
1764750910.84557,1.61
1764750910.85175,1.61
1764750910.857951,1.52
1764750910.864296,1.56
1764750910.8704588,1.56
1764750910.876838,1.52
1764750910.883044,1.58
1764750910.889211,1.54
1764750910.895551,1.53
1764750910.901712,1.54
1764750910.908004,1.53
1764750910.91425,1.59
1764750910.920547,1.56
1764750910.926786,1.53
1764750910.933169,1.61
1764750910.9392798,1.55
1764750910.945554,1.55
1764750910.9518158,1.59
1764750910.958026,1.53
1764750910.964235,1.56
1764750910.9704692,1.58
1764750910.976823,1.57
1764750910.98306,1.61
1764750910.989284,1.53
1764750910.9954371,1.56
1764750911.001936,1.59
1764750911.007947,1.54
1764750911.0142012,1.58
1764750911.0204558,1.59
1764750911.026664,1.52
1764750911.032924,1.58
1764750911.039159,1.55
1764750911.045516,1.54
1764750911.051769,1.58
1764750911.057934,1.53
1764750911.064171,1.57
1764750911.070505,1.56
1764750911.0766878,1.52
1764750911.0829241,1.59
1764750911.089229,1.54
1764750911.095392,1.54
1764750911.101742,1.6
1764750911.108052,1.63
1764750911.114209,1.72
1764750911.1208801,1.66
1764750911.126678,1.67
1764750911.132978,1.88
1764750911.139303,1.81
1764750911.145483,1.74
1764750911.151784,1.78
1764750911.158037,1.72
1764750911.164139,1.59
1764750911.170413,1.53
1764750911.1766138,1.51
1764750911.182933,1.54
1764750911.189197,1.49
1764750911.1954648,1.5
1764750911.201808,1.51
1764750911.20785,1.46
1764750911.214188,1.51
1764750911.220412,1.51
1764750911.226621,1.49
1764750911.232875,1.54
1764750911.239233,1.5
1764750911.245404,1.49
1764750911.251814,1.51
1764750911.257885,1.54
1764750911.2641568,1.83
1764750911.2704499,2.46
1764750911.2768571,2.99
1764750911.2828538,2.98
1764750911.2893062,2.21
1764750911.295603,1.08
1764750911.3016498,1.15
1764750911.3078668,1.64
1764750911.3143702,1.65
1764750911.320419,1.45
1764750911.3266702,1.43
1764750911.33292,1.54
1764750911.3391502,1.48
1764750911.345553,1.49
1764750911.3516989,1.53
1764750911.357996,1.45
1764750911.364218,1.51
1764750911.370576,1.53
1764750911.376589,1.48
1764750911.38333,1.53
1764750911.389318,1.52
1764750911.395514,1.55
1764750911.401817,1.56
1764750911.407996,1.5
1764750911.414185,1.57
1764750911.420438,1.58
1764750911.4265652,1.55
1764750911.4328692,1.6
1764750911.439129,1.57
1764750911.4454122,1.58
1764750911.4518101,1.61
1764750911.457869,1.57
1764750911.4643142,1.61
1764750911.470405,1.61
1764750911.476772,1.61
1764750911.482811,1.68
1764750911.4890869,1.6
1764750911.495348,1.6
1764750911.501703,1.68
1764750911.5078259,1.65
1764750911.514143,1.65
1764750911.520329,1.64
1764750911.526609,1.64
1764750911.532931,1.7
1764750911.5391061,1.63
1764750911.545365,1.6
1764750911.5516732,1.62
1764750911.557933,1.55
1764750911.5641248,1.59
1764750911.570498,1.6
1764750911.576683,1.54
1764750911.583004,1.55
1764750911.589065,1.51
1764750911.6010199,1.51
1764750911.6326249,1.55
1764750911.639871,1.53
1764750911.644393,1.57
1764750911.678551,1.55
1764750911.678752,1.52
1764750911.678806,1.59
1764750911.678858,1.54
1764750911.67903,1.54
1764750911.6791182,1.58
1764750911.679221,1.52
1764750911.679289,1.57
1764750911.679358,1.58
1764750911.6794298,1.56
1764750911.6829162,1.6
1764750911.6946208,1.54
1764750911.695296,1.56
1764750911.702401,1.61
1764750911.707957,1.53
1764750911.714095,1.58
1764750911.7203462,1.57
1764750911.7265458,1.52
1764750911.732884,1.59
1764750911.7390778,1.54
1764750911.745335,1.53
1764750911.751631,1.59
1764750911.757905,1.52
1764750911.764138,1.56
1764750911.770297,1.56
1764750911.7765021,1.52
1764750911.78282,1.55
1764750911.789114,1.52
1764750911.795205,1.54
1764750911.8016498,1.61
1764750911.807756,1.61
1764750911.8140218,1.67
1764750911.820292,1.67
1764750911.8265312,1.68
1764750911.8328,1.83
1764750911.839007,1.8
1764750911.8453069,1.75
1764750911.8518279,1.73
1764750911.8577979,1.68
1764750911.864249,1.61
1764750911.8704069,1.53
1764750911.876738,1.49
1764750911.8833878,1.49
1764750911.8891342,1.43
1764750911.895288,1.48
1764750911.901933,1.52
1764750911.9077601,1.46
1764750911.914145,1.49
1764750911.920425,1.48
1764750911.9264672,1.47
1764750911.932844,1.53
1764750911.939033,1.45
1764750911.94523,1.47
1764750911.9517171,1.54
1764750911.957689,1.54
1764750911.964034,1.76
1764750911.970227,2.33
1764750911.976466,2.96
1764750911.982825,3.02
1764750911.989002,2.35
1764750911.995307,1.23
1764750912.001587,1.12
1764750912.007852,1.51
1764750912.013998,1.58
1764750912.0202298,1.46
1764750912.026452,1.43
1764750912.032769,1.51
1764750912.039045,1.47
1764750912.045204,1.48
1764750912.051454,1.51
1764750912.057632,1.45
1764750912.0639548,1.52
1764750912.070248,1.52
1764750912.07644,1.48
1764750912.082763,1.54
1764750912.088921,1.52
1764750912.095176,1.53
1764750912.1014988,1.56
1764750912.107743,1.5
1764750912.113987,1.57
1764750912.120229,1.58
1764750912.126472,1.55
1764750912.132683,1.62
1764750912.138964,1.58
1764750912.145252,1.6
1764750912.151503,1.64
1764750912.157706,1.58
1764750912.163914,1.64
1764750912.170572,1.68
1764750912.176362,1.61
1764750912.182782,1.68
1764750912.188937,1.65
1764750912.195172,1.63
1764750912.20151,1.68
1764750912.207704,1.62
1764750912.213988,1.67
1764750912.2202082,1.67
1764750912.22642,1.61
1764750912.232901,1.66
1764750912.2389388,1.65
1764750912.2451909,1.65
1764750912.251401,1.64
1764750912.257704,1.59
1764750912.264008,1.62
1764750912.270182,1.6
1764750912.276386,1.54
1764750912.282618,1.58
1764750912.289026,1.54
1764750912.2951722,1.55
1764750912.301431,1.58
1764750912.307752,1.52
1764750912.313931,1.56
1764750912.320199,1.56
1764750912.3263721,1.55
1764750912.332822,1.61
1764750912.338919,1.56
1764750912.345228,1.57
1764750912.3514519,1.62
1764750912.3576581,1.56
1764750912.364002,1.59
1764750912.370304,1.6
1764750912.376388,1.57
1764750912.382659,1.6
1764750912.388868,1.55
1764750912.395287,1.6
1764750912.401403,1.62
1764750912.407647,1.54
1764750912.413845,1.57
1764750912.4202728,1.58
1764750912.426393,1.57
1764750912.4326558,1.6
1764750912.4393642,1.55
1764750912.4452,1.55
1764750912.451367,1.58
1764750912.4576828,1.53
1764750912.463926,1.59
1764750912.4701529,1.58
1764750912.4763699,1.53
1764750912.4826949,1.59
1764750912.4889102,1.56
1764750912.4951758,1.54
1764750912.501417,1.58
1764750912.507641,1.56
1764750912.5139918,1.68
1764750912.520164,1.71
1764750912.526407,1.66
1764750912.532675,1.75
1764750912.538858,1.84
1764750912.5451431,1.83
1764750912.5514371,1.77
1764750912.557676,1.75
1764750912.56396,1.77
1764750912.5701241,1.6
1764750912.57636,1.51
1764750912.582633,1.6
1764750912.5888891,1.51
1764750912.595108,1.48
1764750912.6016388,1.53
1764750912.607571,1.47
1764750912.6138759,1.51
1764750912.62023,1.5
1764750912.626343,1.48
1764750912.632786,1.54
1764750912.6388311,1.5
1764750912.645205,1.5
1764750912.651843,1.53
1764750912.65784,1.45
1764750912.663788,1.56
1764750912.670104,1.8
1764750912.6763651,2.4
1764750912.682771,3.05
1764750912.689158,2.93
1764750912.6951349,2.17
1764750912.701356,1.11
1764750912.707613,1.11
1764750912.7139049,1.67
1764750912.720254,1.63
1764750912.726336,1.4
1764750912.732647,1.47
1764750912.738815,1.51
1764750912.745087,1.48
1764750912.7513359,1.49
1764750912.7575612,1.45
1764750912.763882,1.52
1764750912.770422,1.52
1764750912.776277,1.46
1764750912.782975,1.51
1764750912.7889369,1.5
1764750912.7950358,1.51
1764750912.801445,1.57
1764750912.8075619,1.54
1764750912.8139389,1.56
1764750912.820297,1.54
1764750912.826426,1.52
1764750912.832621,1.6
1764750912.8387048,1.57
1764750912.845053,1.58
1764750912.851382,1.62
1764750912.857572,1.58
1764750912.863901,1.62
1764750912.870048,1.65
1764750912.8762949,1.62
1764750912.882605,1.65
1764750912.888798,1.62
1764750912.895108,1.63
1764750912.901807,1.67
1764750912.907551,1.62
1764750912.913863,1.69
1764750912.920213,1.67
1764750912.926338,1.63
1764750912.932547,1.68
1764750912.938684,1.64
1764750912.94507,1.61
1764750912.951346,1.64
1764750912.957511,1.59
1764750912.963839,1.6
1764750912.97004,1.56
1764750912.976297,1.53
1764750912.982749,1.58
1764750912.988717,1.52
1764750912.9949598,1.52
1764750913.001321,1.54
1764750913.0074902,1.48
1764750913.013867,1.55
1764750913.0200598,1.55
1764750913.026346,1.5
1764750913.032599,1.56
1764750913.038757,1.53
1764750913.045011,1.53
1764750913.0514078,1.58
1764750913.057578,1.54
1764750913.063862,1.59
1764750913.070157,1.56
1764750913.076297,1.53
1764750913.082665,1.61
1764750913.088792,1.55
1764750913.094995,1.56
1764750913.10145,1.57
1764750913.1076128,1.54
1764750913.1138198,1.59
1764750913.120058,1.58
1764750913.1263092,1.53
1764750913.132599,1.6
1764750913.138738,1.55
1764750913.145029,1.53
1764750913.1516302,1.58
1764750913.157632,1.53
1764750913.1945338,1.56
1764750913.194669,1.56
1764750913.195585,1.52
1764750913.1957262,1.56
1764750913.1958778,1.55
1764750913.196759,1.54
1764750913.210125,1.56
1764750913.210185,1.53
1764750913.214082,1.64
1764750913.220186,1.68
1764750913.2265651,1.62
1764750913.238753,1.74
1764750913.24107,1.81
1764750913.245636,1.85
1764750913.251652,1.83
1764750913.257531,1.69
1764750913.264225,1.71
1764750913.270141,1.64
1764750913.2763982,1.52
1764750913.282515,1.57
1764750913.288936,1.5
1764750913.294948,1.46
1764750913.302061,1.5
1764750913.307483,1.46
1764750913.3138099,1.5
1764750913.319958,1.48
1764750913.326143,1.46
1764750913.332574,1.52
1764750913.33879,1.5
1764750913.345057,1.49
1764750913.351229,1.53
1764750913.357441,1.47
1764750913.363806,1.52
1764750913.370005,1.64
1764750913.376147,2.03
1764750913.3824441,2.82
1764750913.388682,3.04
1764750913.395041,2.68
1764750913.4013991,1.65
1764750913.407499,0.94
1764750913.413774,1.4
1764750913.419957,1.68
1764750913.426189,1.51
1764750913.432437,1.49
1764750913.438841,1.51
1764750913.445128,1.52
1764750913.451364,1.52
1764750913.457367,1.47
1764750913.463702,1.52
1764750913.470088,1.52
1764750913.4762838,1.51
1764750913.4824991,1.57
1764750913.4887629,1.52
1764750913.494956,1.5
1764750913.501249,1.57
1764750913.507422,1.56
1764750913.513633,1.59
1764750913.519974,1.58
1764750913.5261152,1.55
1764750913.532455,1.6
1764750913.538676,1.58
1764750913.545006,1.63
1764750913.551199,1.65
1764750913.557438,1.59
1764750913.5637472,1.63
1764750913.569972,1.65
1764750913.576255,1.64
1764750913.582468,1.7
1764750913.588706,1.64
1764750913.594953,1.64
1764750913.601255,1.7
1764750913.607456,1.66
1764750913.613711,1.68
1764750913.619849,1.67
1764750913.626109,1.64
1764750913.6323981,1.7
1764750913.6385438,1.64
1764750913.6449332,1.62
1764750913.651307,1.69
1764750913.6573539,1.6
1764750913.6636841,1.6
1764750913.670103,1.61
1764750913.6762612,1.56
1764750913.682424,1.58
1764750913.6885738,1.54
1764750913.695072,1.54
1764750913.7012649,1.59
1764750913.707584,1.52
1764750913.713651,1.54
1764750913.719937,1.57
1764750913.72612,1.53
1764750913.732426,1.59
1764750913.738716,1.54
1764750913.744895,1.54
1764750913.751489,1.6
1764750913.757459,1.56
1764750913.76365,1.62
1764750913.77002,1.61
1764750913.776216,1.55
1764750913.7824929,1.59
1764750913.7885492,1.59
1764750913.795029,1.6
1764750913.80136,1.63
1764750913.8074691,1.55
1764750913.813757,1.59
1764750913.819923,1.58
1764750913.826101,1.54
1764750913.832444,1.61
1764750913.838624,1.54
1764750913.844943,1.53
1764750913.851522,1.61
1764750913.857398,1.55
1764750913.86368,1.58
1764750913.8699148,1.55
1764750913.876181,1.52
1764750913.882398,1.6
1764750913.888725,1.57
1764750913.8949142,1.55
1764750913.901622,1.57
1764750913.907403,1.58
1764750913.913632,1.71
1764750913.9198341,1.69
1764750913.926137,1.64
1764750913.932361,1.85
1764750913.938741,1.86
1764750913.94498,1.77
1764750913.951147,1.74
1764750913.957356,1.71
1764750913.963765,1.66
1764750913.969835,1.53
1764750913.976119,1.51
1764750913.9825122,1.55
1764750913.988516,1.47
1764750913.994764,1.45
1764750914.001,1.52
1764750914.007318,1.46
1764750914.013566,1.49
1764750914.019861,1.51
1764750914.026075,1.49
1764750914.0323699,1.53
1764750914.038508,1.49
1764750914.044718,1.5
1764750914.0510552,1.53
1764750914.057289,1.51
1764750914.0636082,1.67
1764750914.069825,2.07
1764750914.076044,2.74
1764750914.082499,3.09
1764750914.088526,2.73
1764750914.094841,1.63
1764750914.101176,1.0
1764750914.107347,1.38
1764750914.11357,1.67
1764750914.119797,1.52
1764750914.12597,1.39
1764750914.132303,1.49
1764750914.138595,1.5
1764750914.144736,1.5
1764750914.1514208,1.51
1764750914.157299,1.45
1764750914.16367,1.52
1764750914.1698182,1.5
1764750914.176048,1.44
1764750914.1823108,1.57
1764750914.1885388,1.54
1764750914.194902,1.5
1764750914.2011268,1.54
1764750914.207315,1.52
1764750914.2135081,1.56
1764750914.2198029,1.55
1764750914.226017,1.56
1764750914.232353,1.62
1764750914.238604,1.56
1764750914.244777,1.54
1764750914.251154,1.62
1764750914.257355,1.61
1764750914.263561,1.63
1764750914.269779,1.62
1764750914.2759922,1.59
1764750914.2822862,1.65
1764750914.288585,1.62
1764750914.2947469,1.64
1764750914.301143,1.67
1764750914.307334,1.6
1764750914.3135302,1.66
1764750914.319795,1.68
1764750914.326088,1.63
1764750914.332275,1.67
1764750914.3385038,1.65
1764750914.344768,1.63
1764750914.351109,1.63
1764750914.357344,1.57
1764750914.3634932,1.6
1764750914.369814,1.59
1764750914.375963,1.53
1764750914.3822432,1.58
1764750914.388722,1.54
1764750914.394739,1.52
1764750914.401153,1.58
1764750914.407299,1.53
1764750914.4134579,1.56
1764750914.41974,1.55
1764750914.425958,1.52
1764750914.4324648,1.59
1764750914.43859,1.56
1764750914.444803,1.57
1764750914.4510348,1.62
1764750914.4572968,1.57
1764750914.463636,1.59
1764750914.469685,1.58
1764750914.4759529,1.54
1764750914.4824672,1.61
1764750914.4884639,1.58
1764750914.4947252,1.56
1764750914.5013618,1.62
1764750914.507272,1.57
1764750914.513568,1.59
1764750914.519725,1.57
1764750914.5259478,1.55
1764750914.532468,1.6
1764750914.5384378,1.56
1764750914.544686,1.57
1764750914.5509582,1.59
1764750914.5574799,1.53
1764750914.5635111,1.57
1764750914.570196,1.58
1764750914.575948,1.57
1764750914.582504,1.72
1764750914.588473,1.71
1764750914.59485,1.68
1764750914.6009998,1.84
1764750914.6071832,1.86
1764750914.6134121,1.82
1764750914.619657,1.75
1764750914.6259809,1.72
1764750914.632189,1.68
1764750914.638613,1.53
1764750914.648866,1.53
1764750914.665903,1.55
1764750914.666073,1.46
1764750914.6662028,1.49
1764750914.691247,1.5
1764750914.691714,1.49
1764750914.691873,1.53
1764750914.692034,1.47
1764750914.7115798,1.46
1764750914.711709,1.53
1764750914.7117991,1.48
1764750914.739202,1.5
1764750914.739375,1.51
1764750914.739521,1.47
1764750914.7396631,1.63
1764750914.739807,1.87
1764750914.754236,2.53
1764750914.754404,3.07
1764750914.759648,2.88
1764750914.7669451,1.98
1764750914.7709062,0.98
1764750914.776165,1.22
1764750914.782784,1.74
1764750914.788657,1.58
1764750914.794711,1.38
1764750914.8010612,1.5
1764750914.8073862,1.5
1764750914.813439,1.49
1764750914.81966,1.48
1764750914.825828,1.47
1764750914.832287,1.53
1764750914.83866,1.48
1764750914.844689,1.49
1764750914.85089,1.56
1764750914.857204,1.49
1764750914.8636742,1.51
1764750914.869648,1.57
1764750914.8759549,1.52
1764750914.8822389,1.58
1764750914.888472,1.58
1764750914.894686,1.56
1764750914.900953,1.6
1764750914.907276,1.56
1764750914.913423,1.58
1764750914.919754,1.61
1764750914.925944,1.62
1764750914.93225,1.67
1764750914.938393,1.62
1764750914.944617,1.63
1764750914.9508722,1.67
1764750914.957081,1.61
1764750914.963455,1.7
1764750914.969541,1.69
1764750914.9759429,1.62
1764750914.9822998,1.69
1764750914.9883351,1.67
1764750914.994573,1.66
1764750915.0008771,1.67
1764750915.007074,1.62
1764750915.013387,1.63
1764750915.019551,1.62
1764750915.02587,1.56
1764750915.0322628,1.61
1764750915.038333,1.57
1764750915.044587,1.54
1764750915.050959,1.58
1764750915.0571551,1.52
1764750915.0637481,1.54
1764750915.069691,1.52
1764750915.075823,1.51
1764750915.082368,1.59
1764750915.088393,1.54
1764750915.094581,1.53
1764750915.100935,1.6
1764750915.107139,1.55
1764750915.113309,1.6
1764750915.119495,1.58
1764750915.125957,1.53
1764750915.132533,1.63
1764750915.138319,1.61
1764750915.1445608,1.56
1764750915.15095,1.62
1764750915.1570659,1.57
1764750915.163446,1.59
1764750915.169638,1.59
1764750915.175801,1.56
1764750915.182241,1.62
1764750915.188344,1.56
1764750915.194551,1.54
1764750915.2009048,1.59
1764750915.2070248,1.57
1764750915.213482,1.59
1764750915.219903,1.57
1764750915.225933,1.52
1764750915.2322729,1.57
1764750915.238314,1.57
1764750915.2445939,1.56
1764750915.2508612,1.58
1764750915.2570581,1.54
1764750915.263326,1.65
1764750915.269485,1.7
1764750915.275792,1.64
1764750915.282193,1.73
1764750915.288275,1.85
1764750915.294603,1.84
1764750915.300801,1.79
1764750915.3070421,1.72
1764750915.3132968,1.75
1764750915.319568,1.66
1764750915.325789,1.47
1764750915.333614,1.56
1764750915.338275,1.52
1764750915.344477,1.45
1764750915.350993,1.49
1764750915.3570821,1.46
1764750915.3633978,1.49
1764750915.369631,1.49
1764750915.375753,1.43
1764750915.382136,1.52
1764750915.388322,1.51
1764750915.394519,1.49
1764750915.4008682,1.52
1764750915.4070861,1.46
1764750915.4133031,1.52
1764750915.419595,1.62
1764750915.4257832,1.82
1764750915.4321249,2.53
1764750915.438269,3.06
1764750915.444499,2.9
1764750915.45078,2.09
1764750915.456942,1.0
1764750915.463236,1.19
1764750915.4695418,1.67
1764750915.475703,1.55
1764750915.4821398,1.49
1764750915.488287,1.47
1764750915.494569,1.51
1764750915.50089,1.54
1764750915.5071769,1.45
1764750915.513334,1.5
1764750915.5195782,1.53
1764750915.525779,1.5
1764750915.532183,1.54
1764750915.538325,1.53
1764750915.5446541,1.53
1764750915.550844,1.55
1764750915.557301,1.5
1764750915.563286,1.56
1764750915.569474,1.58
1764750915.575677,1.53
1764750915.5821598,1.61
1764750915.588228,1.57
1764750915.594547,1.57
1764750915.600769,1.64
1764750915.607181,1.59
1764750915.613292,1.61
1764750915.619544,1.63
1764750915.625856,1.62
1764750915.6323452,1.67
1764750915.638295,1.62
1764750915.644505,1.63
1764750915.650712,1.71
1764750915.657002,1.64
1764750915.66332,1.64
1764750915.6694431,1.66
1764750915.6757178,1.65
1764750915.682304,1.69
1764750915.68825,1.6
1764750915.6946502,1.61
1764750915.700901,1.69
1764750915.707041,1.58
1764750915.713637,1.6
1764750915.71959,1.63
1764750915.725827,1.53
1764750915.732594,1.57
1764750915.738406,1.55
1764750915.74454,1.52
1764750915.750754,1.55
1764750915.756959,1.49
1764750915.7633421,1.51
1764750915.769529,1.55
1764750915.775829,1.52
1764750915.782326,1.56
1764750915.788288,1.53
1764750915.794482,1.54
1764750915.8006551,1.59
1764750915.807188,1.52
1764750915.813666,1.58
1764750915.8194811,1.6
1764750915.825749,1.53
1764750915.834077,1.59
1764750915.8382132,1.57
1764750915.8446,1.55
1764750915.85074,1.59
1764750915.8569689,1.55
1764750915.8634272,1.6
1764750915.869459,1.6
1764750915.8760152,1.53
1764750915.882005,1.58
1764750915.8883278,1.57
1764750915.894857,1.54
1764750915.900685,1.58
1764750915.906959,1.53
1764750915.913437,1.57
1764750915.9193769,1.59
1764750915.925741,1.54
1764750915.931978,1.58
1764750915.938441,1.54
1764750915.944455,1.55
1764750915.950826,1.63
1764750915.957042,1.62
1764750915.963826,1.67
1764750915.969484,1.69
1764750915.975869,1.66
1764750915.9819279,1.82
1764750915.9881952,1.87
1764750915.9945338,1.81
1764750916.000702,1.75
1764750916.029213,1.7
1764750916.044055,1.68
1764750916.0444422,1.57
1764750916.0445828,1.51
1764750916.044715,1.56
1764750916.044859,1.48
1764750916.045003,1.48
1764750916.050619,1.55
1764750916.0569339,1.47
1764750916.063339,1.49
1764750916.069428,1.52
1764750916.075707,1.49
1764750916.081955,1.53
1764750916.0882182,1.49
1764750916.094434,1.5
1764750916.100863,1.51
1764750916.10722,1.43
1764750916.113206,1.58
1764750916.119477,1.84
1764750916.125712,2.38
1764750916.131926,3.08
1764750916.138171,2.99
1764750916.144555,2.16
1764750916.150711,1.11
1764750916.156924,1.12
1764750916.1632829,1.63
1764750916.1694221,1.62
1764750916.1761432,1.4
1764750916.18265,1.48
1764750916.18819,1.49
1764750916.194318,1.47
1764750916.200663,1.52
1764750916.207424,1.46
1764750916.2151942,1.48
1764750916.219554,1.51
1764750916.22563,1.5
1764750916.231992,1.54
1764750916.2382112,1.51
1764750916.244353,1.52
1764750916.25108,1.56
1764750916.2570329,1.51
1764750916.263872,1.56
1764750916.27085,1.58
1764750916.2756412,1.52
1764750916.282036,1.59
1764750916.288159,1.59
1764750916.294346,1.57
1764750916.300832,1.59
1764750916.306902,1.56
1764750916.313458,1.63
1764750916.319446,1.65
1764750916.3256042,1.6
1764750916.332128,1.68
1764750916.338527,1.64
1764750916.344429,1.62
1764750916.350739,1.66
1764750916.3568692,1.61
1764750916.36318,1.66
1764750916.369576,1.67
1764750916.3758771,1.61
1764750916.3821938,1.68
1764750916.388148,1.65
1764750916.394388,1.59
1764750916.400852,1.64
1764750916.4068348,1.6
1764750916.413585,1.59
1764750916.41947,1.57
1764750916.425644,1.53
1764750916.432878,1.6
1764750916.438145,1.55
1764750916.444361,1.52
1764750916.4512892,1.57
1764750916.456827,1.53
1764750916.464501,1.55
1764750916.469496,1.56
1764750916.47568,1.53
1764750916.484302,1.58
1764750916.488022,1.55
1764750916.494333,1.54
1764750916.500684,1.6
1764750916.506906,1.56
1764750916.5135412,1.58
1764750916.519443,1.61
1764750916.525575,1.55
1764750916.5323021,1.6
1764750916.538004,1.6
1764750916.544249,1.56
1764750916.550654,1.6
1764750916.556793,1.57
1764750916.563051,1.6
1764750916.5695128,1.59
1764750916.575594,1.52
1764750916.5833511,1.58
1764750916.588167,1.57
1764750916.594304,1.55
1764750916.600607,1.59
1764750916.60688,1.51
1764750916.613642,1.56
1764750916.619288,1.59
1764750916.625707,1.53
1764750916.6326752,1.59
1764750916.638015,1.55
1764750916.64433,1.57
1764750916.650574,1.7
1764750916.656806,1.67
1764750916.6635258,1.67
1764750916.669315,1.74
1764750916.675515,1.79
1764750916.6824691,1.87
1764750916.688014,1.78
1764750916.694271,1.7
1764750916.70074,1.74
1764750916.707029,1.59
1764750916.714881,1.54
1764750916.719279,1.57
1764750916.725439,1.48
1764750916.732258,1.5
1764750916.737974,1.49
1764750916.744226,1.5
1764750916.750592,1.53
1764750916.756903,1.49
1764750916.763127,1.51
1764750916.769217,1.52
1764750916.775529,1.47
1764750916.7832818,1.52
1764750916.787898,1.49
1764750916.794223,1.47
1764750916.800587,1.56
1764750916.8068259,1.63
1764750916.8129978,2.0
1764750916.819206,2.77
1764750916.825495,3.06
1764750916.832631,2.78
1764750916.837975,1.73
1764750916.844235,0.99
1764750916.8505569,1.39
1764750916.8567822,1.61
1764750916.8637052,1.53
1764750916.8692842,1.47
1764750916.875464,1.44
1764750916.882638,1.53
1764750916.8879502,1.48
1764750916.894204,1.47
1764750916.900438,1.54
1764750916.906848,1.49
1764750916.913048,1.52
1764750916.9191911,1.54
1764750916.925493,1.5
1764750916.932084,1.54
1764750916.9379468,1.52
1764750916.944245,1.53
1764750916.9507031,1.58
1764750916.9567099,1.54
1764750916.963292,1.56
1764750916.969406,1.6
1764750916.9755259,1.58
1764750916.981954,1.63
1764750916.988037,1.6
1764750916.994136,1.6
1764750917.0004869,1.64
1764750917.006709,1.59
1764750917.0130181,1.65
1764750917.0191722,1.68
1764750917.025429,1.6
1764750917.0328362,1.65
1764750917.0379899,1.68
1764750917.044192,1.66
1764750917.050497,1.68
1764750917.0566652,1.63
1764750917.063633,1.66
1764750917.069201,1.66
1764750917.075475,1.62
1764750917.081934,1.65
1764750917.08797,1.63
1764750917.09434,1.61
1764750917.100471,1.65
1764750917.106828,1.58
1764750917.113237,1.58
1764750917.119169,1.57
1764750917.125367,1.53
1764750917.131812,1.57
1764750917.1380239,1.54
1764750917.144336,1.54
1764750917.150455,1.59
1764750917.156783,1.54
1764750917.163234,1.58
1764750917.169297,1.58
1764750917.1753972,1.54
1764750917.181679,1.61
1764750917.1879308,1.56
1764750917.1941628,1.58
1764750917.200532,1.66
1764750917.206594,1.57
1764750917.2132869,1.6
1764750917.219223,1.61
1764750917.225357,1.57
1764750917.232136,1.65
1764750917.237939,1.62
1764750917.244287,1.6
1764750917.250423,1.62
1764750917.256693,1.56
1764750917.2629461,1.62
1764750917.269195,1.63
1764750917.275431,1.55
1764750917.2821639,1.59
1764750917.287919,1.56
1764750917.294222,1.58
1764750917.3004951,1.6
1764750917.3065941,1.56
1764750917.313065,1.59
1764750917.3191822,1.58
1764750917.325425,1.54
1764750917.331907,1.6
1764750917.337949,1.59
1764750917.344104,1.64
1764750917.3505752,1.73
1764750917.3566651,1.67
1764750917.363057,1.72
1764750917.3691142,1.85
1764750917.375411,1.83
1764750917.381854,1.79
1764750917.387933,1.7
1764750917.394162,1.72
1764750917.400388,1.68
1764750917.406583,1.51
1764750917.4128509,1.57
1764750917.419101,1.58
1764750917.42528,1.45
1764750917.432257,1.51
1764750917.438028,1.51
1764750917.4440708,1.51
1764750917.450329,1.53
1764750917.456584,1.49
1764750917.463068,1.54
1764750917.469196,1.53
1764750917.475413,1.46
1764750917.4819489,1.52
1764750917.487864,1.51
1764750917.4940999,1.51
1764750917.5004349,1.64
1764750917.50657,1.88
1764750917.512945,2.63
1764750917.5190668,3.07
1764750917.525358,2.76
1764750917.5317051,1.91
1764750917.537856,1.05
1764750917.5440829,1.29
1764750917.550283,1.72
1764750917.556583,1.55
1764750917.56319,1.46
1764750917.56908,1.53
1764750917.575168,1.49
1764750917.581655,1.54
1764750917.5877912,1.51
1764750917.594037,1.46
1764750917.6003468,1.57
1764750917.606692,1.5
1764750917.612929,1.52
1764750917.619179,1.57
1764750917.6253598,1.52
1764750917.631588,1.58
1764750917.637769,1.54
1764750917.6439822,1.52
1764750917.650304,1.63
1764750917.656536,1.55
1764750917.662824,1.58
1764750917.668999,1.64
1764750917.675255,1.58
1764750917.681553,1.65
1764750917.687716,1.62
1764750917.694005,1.59
1764750917.700307,1.66
1764750917.706534,1.62
1764750917.713384,1.64
1764750917.719263,1.68
1764750917.72529,1.66
1764750917.7316349,1.71
1764750917.7379048,1.65
1764750917.7440681,1.63
1764750917.750336,1.71
1764750917.756536,1.67
1764750917.762805,1.69
1764750917.769155,1.69
1764750917.7753909,1.64
1764750917.781578,1.7
1764750917.787832,1.62
1764750917.794386,1.6
1764750917.800383,1.65
1764750917.80657,1.56
1764750917.816523,1.56
1764750917.819407,1.57
1764750917.825421,1.52
1764750917.8442519,1.59
1764750917.848263,1.54
1764750917.848487,1.51
1764750917.851785,1.58
1764750917.8565261,1.55
1764750917.864786,1.56
1764750917.869666,1.58
1764750917.875552,1.53
1764750917.8826492,1.59
1764750917.8877912,1.59
1764750917.893992,1.55
1764750917.900346,1.61
1764750917.906539,1.56
1764750917.913273,1.58
1764750917.919043,1.62
1764750917.925329,1.56
1764750917.93161,1.6
1764750917.937778,1.63
1764750917.9440792,1.58
1764750917.9503338,1.61
1764750917.956592,1.54
1764750917.962806,1.61
1764750917.969075,1.62
1764750917.975339,1.52
1764750917.981707,1.58
1764750917.98819,1.59
1764750917.994993,1.54
1764750918.0003479,1.58
1764750918.006502,1.56
1764750918.0129669,1.61
1764750918.018975,1.67
1764750918.025215,1.64
1764750918.0315342,1.68
1764750918.0377622,1.73
1764750918.043963,1.81
1764750918.050262,1.88
1764750918.056946,1.73
1764750918.062751,1.72
1764750918.068972,1.73
1764750918.075159,1.55
1764750918.081509,1.56
1764750918.087688,1.52
1764750918.094,1.46
1764750918.100163,1.55
1764750918.106433,1.46
1764750918.1128068,1.44
1764750918.118987,1.5
1764750918.125299,1.48
1764750918.1316748,1.52
1764750918.1379552,1.46
1764750918.144,1.45
1764750918.150344,1.53
1764750918.156478,1.5
1764750918.163295,1.48
1764750918.168973,1.52
1764750918.1753101,1.6
1764750918.181702,2.12
1764750918.187831,2.88
1764750918.1940129,3.04
1764750918.200245,2.68
1764750918.206441,1.49
1764750918.212765,0.98
1764750918.218868,1.45
1764750918.225143,1.62
1764750918.23147,1.53
1764750918.237675,1.41
1764750918.244014,1.43
1764750918.250139,1.52
1764750918.2563999,1.46
1764750918.262729,1.48
1764750918.2689621,1.52
1764750918.275083,1.47
1764750918.2813818,1.52
1764750918.287772,1.52
1764750918.294142,1.49
1764750918.3001668,1.52
1764750918.3063738,1.48
1764750918.3129191,1.55
1764750918.3189068,1.57
1764750918.325152,1.5
1764750918.331397,1.55
1764750918.3378718,1.55
1764750918.3439791,1.56
1764750918.350247,1.61
1764750918.356479,1.55
1764750918.362793,1.6
1764750918.368906,1.63
1764750918.375081,1.57
1764750918.381582,1.63
1764750918.387754,1.6
1764750918.393928,1.59
1764750918.400231,1.66
1764750918.406485,1.6
1764750918.412918,1.65
1764750918.4189,1.66
1764750918.425247,1.57
1764750918.43138,1.67
1764750918.43756,1.65
1764750918.4438999,1.58
1764750918.4501781,1.64
1764750918.456515,1.6
1764750918.462688,1.59
1764750918.4689658,1.58
1764750918.475134,1.52
1764750918.481492,1.55
1764750918.487635,1.54
1764750918.4939709,1.52
1764750918.5001311,1.56
1764750918.50646,1.49
1764750918.512596,1.51
1764750918.518871,1.53
1764750918.525235,1.51
1764750918.531672,1.58
1764750918.537651,1.54
1764750918.54403,1.52
1764750918.550109,1.58
1764750918.556403,1.51
1764750918.562697,1.56
1764750918.568865,1.61
1764750918.575148,1.52
1764750918.5813708,1.59
1764750918.58767,1.58
1764750918.593944,1.54
1764750918.600095,1.59
1764750918.606326,1.55
1764750918.612579,1.57
1764750918.619029,1.59
1764750918.625118,1.53
1764750918.631586,1.6
1764750918.637714,1.57
1764750918.6440032,1.55
1764750918.650115,1.61
1764750918.656327,1.54
1764750918.662685,1.54
1764750918.668892,1.56
1764750918.675095,1.52
1764750918.6814778,1.57
1764750918.687693,1.53
1764750918.693832,1.54
1764750918.700161,1.68
1764750918.706383,1.63
1764750918.7126899,1.61
1764750918.718791,1.74
1764750918.725121,1.81
1764750918.731532,1.85
1764750918.737626,1.74
1764750918.743784,1.67
1764750918.750185,1.73
1764750918.75635,1.51
1764750918.762586,1.49
1764750918.768825,1.55
1764750918.775092,1.45
1764750918.7815459,1.47
1764750918.7875998,1.49
1764750918.7938502,1.45
1764750918.800095,1.51
1764750918.806283,1.46
1764750918.812591,1.5
1764750918.818749,1.5
1764750918.8250291,1.47
1764750918.831318,1.54
1764750918.837527,1.48
1764750918.843903,1.41
1764750918.850091,1.49
1764750918.8562508,1.6
1764750918.862582,2.01
1764750918.86879,2.76
1764750918.875081,3.01
1764750918.881307,2.78
1764750918.887543,1.7
1764750918.893972,0.9
1764750918.9000762,1.42
1764750918.906306,1.68
1764750918.912564,1.5
1764750918.918704,1.42
1764750918.925188,1.43
1764750918.931395,1.52
1764750918.9375858,1.5
1764750918.943768,1.46
1764750918.95009,1.51
1764750918.956296,1.45
1764750918.962543,1.5
1764750918.9688709,1.53
1764750918.9750772,1.47
1764750918.981324,1.52
1764750918.987535,1.51
1764750918.993817,1.51
1764750919.000014,1.56
1764750919.006293,1.47
1764750919.012655,1.52
1764750919.018786,1.57
1764750919.0250099,1.52
1764750919.031321,1.58
1764750919.037546,1.57
1764750919.043883,1.55
1764750919.050105,1.61
1764750919.056248,1.54
1764750919.062731,1.62
1764750919.068838,1.68
1764750919.075045,1.59
1764750919.081355,1.64
1764750919.087539,1.61
1764750919.0937889,1.59
1764750919.100009,1.67
1764750919.1063309,1.59
1764750919.1125681,1.61
1764750919.118861,1.65
1764750919.125041,1.57
1764750919.13138,1.63
1764750919.1374772,1.59
1764750919.1438851,1.56
1764750919.150004,1.6
1764750919.156252,1.51
1764750919.162557,1.52
1764750919.168714,1.55
1764750919.174995,1.51
1764750919.18137,1.55
1764750919.187519,1.51
1764750919.1936882,1.51
1764750919.2001421,1.55
1764750919.206321,1.48
1764750919.212791,1.51
1764750919.218754,1.54
1764750919.224946,1.51
1764750919.2312682,1.56
1764750919.237466,1.52
1764750919.2437801,1.55
1764750919.2500029,1.64
1764750919.2562408,1.53
1764750919.262534,1.55
1764750919.26866,1.58
1764750919.2749598,1.52
1764750919.281369,1.58
1764750919.287554,1.57
1764750919.2937741,1.53
1764750919.3000681,1.59
1764750919.30625,1.55
1764750919.312511,1.57
1764750919.3186922,1.59
1764750919.3249578,1.52
1764750919.331156,1.57
1764750919.337429,1.53
1764750919.3437161,1.52
1764750919.3499599,1.58
1764750919.356267,1.52
1764750919.362468,1.56
1764750919.368769,1.58
1764750919.374922,1.52
1764750919.3811169,1.56
1764750919.3875358,1.53
1764750919.3937201,1.5
1764750919.400008,1.62
1764750919.4063208,1.64
1764750919.412468,1.67
1764750919.418808,1.65
1764750919.424864,1.66
1764750919.431357,1.84
1764750919.437421,1.82
1764750919.4440162,1.7
1764750919.449999,1.71
1764750919.456213,1.69
1764750919.462475,1.61
1764750919.468704,1.54
1764750919.474895,1.49
1764750919.481197,1.52
1764750919.487403,1.45
1764750919.49371,1.44
1764750919.4998982,1.52
1764750919.5062358,1.48
1764750919.5124989,1.47
1764750919.5187871,1.5
1764750919.524915,1.48
1764750919.531174,1.53
1764750919.537389,1.51
1764750919.543672,1.5
1764750919.549929,1.53
1764750919.5562298,1.48
1764750919.5624409,1.59
1764750919.568681,1.89
1764750919.574923,2.55
1764750919.581292,3.13
1764750919.587432,2.91
1764750919.594165,1.93
1764750919.6000159,1.09
1764750919.6062112,1.27
1764750919.612465,1.63
1764750919.618779,1.59
1764750919.624935,1.45
1764750919.631225,1.53
1764750919.6374369,1.53
1764750919.6437938,1.5
1764750919.649871,1.56
1764750919.656139,1.5
1764750919.6667688,1.52
1764750919.674558,1.58
1764750919.6943119,1.53
1764750919.703226,1.59
1764750919.703457,1.55
1764750919.703585,1.52
1764750919.703718,1.6
1764750919.717247,1.58
1764750919.717303,1.61
1764750919.721601,1.62
1764750919.7285619,1.56
1764750919.737037,1.64
1764750919.737456,1.61
1764750919.74445,1.59
1764750919.749902,1.7
1764750919.756246,1.62
1764750919.762539,1.64
1764750919.76872,1.71
1764750919.774851,1.67
1764750919.781193,1.69
1764750919.7880561,1.67
1764750919.794307,1.68
1764750919.799937,1.76
1764750919.806196,1.69
1764750919.813684,1.69
1764750919.8187509,1.71
1764750919.824895,1.66
1764750919.8312042,1.73
1764750919.837566,1.69
1764750919.843637,1.66
1764750919.849857,1.69
1764750919.8561,1.61
1764750919.862466,1.63
1764750919.868644,1.65
1764750919.874787,1.59
1764750919.881096,1.6
1764750919.88729,1.6
1764750919.893853,1.54
1764750919.899848,1.56
1764750919.9060302,1.57
1764750919.912307,1.64
1764750919.918582,1.62
1764750919.9249659,1.51
1764750919.9310458,1.62
1764750919.937265,1.61
1764750919.943626,1.59
1764750919.949813,1.66
1764750919.956021,1.6
1764750919.962412,1.6
1764750919.968585,1.62
1764750919.974849,1.61
1764750919.981,1.66
1764750919.987305,1.61
1764750919.9936268,1.59
1764750919.999823,1.65
1764750920.006007,1.59
1764750920.012436,1.61
1764750920.018498,1.66
1764750920.024817,1.59
1764750920.031081,1.6
1764750920.0373602,1.61
1764750920.043797,1.6
1764750920.0497742,1.62
1764750920.056064,1.56
1764750920.062284,1.61
1764750920.068514,1.64
1764750920.074843,1.54
1764750920.0811672,1.6
1764750920.0872908,1.58
1764750920.093759,1.57
1764750920.0998569,1.65
1764750920.106061,1.56
1764750920.1122382,1.58
1764750920.118557,1.65
1764750920.124732,1.66
1764750920.131142,1.75
1764750920.1372721,1.72
1764750920.143563,1.76
1764750920.149809,1.9
1764750920.1560168,1.83
1764750920.162336,1.78
1764750920.168546,1.77
1764750920.174818,1.68
1764750920.18121,1.63
1764750920.187288,1.54
1764750920.194138,1.52
1764750920.199831,1.58
1764750920.2060642,1.51
1764750920.212287,1.52
1764750920.218478,1.54
1764750920.2247958,1.49
1764750920.230988,1.57
1764750920.237189,1.51
1764750920.2435699,1.49
1764750920.249839,1.58
1764750920.256078,1.51
1764750920.2622578,1.53
1764750920.26847,1.52
1764750920.2746801,1.52
1764750920.2809842,1.75
1764750920.28729,2.23
1764750920.293488,2.89
1764750920.2997708,3.06
1764750920.305952,2.54
1764750920.312438,1.41
1764750920.318528,1.11
1764750920.324708,1.55
1764750920.3310552,1.66
1764750920.337264,1.5
1764750920.3436182,1.46
1764750920.349697,1.54
1764750920.356043,1.52
1764750920.362336,1.51
1764750920.3684502,1.55
1764750920.3747861,1.51
1764750920.381014,1.53
1764750920.387307,1.55
1764750920.393651,1.53
1764750920.399728,1.6
1764750920.4060109,1.54
1764750920.4122,1.56
1764750920.4185011,1.58
1764750920.424767,1.53
1764750920.431089,1.59
1764750920.437233,1.57
1764750920.4438028,1.57
1764750920.449721,1.65
1764750920.456055,1.57
1764750920.462194,1.62
1764750920.468427,1.66
1764750920.4747488,1.57
1764750920.481122,1.67
1764750920.487295,1.66
1764750920.49369,1.61
1764750920.499764,1.7
1764750920.5061388,1.65
1764750920.512286,1.66
1764750920.518514,1.68
1764750920.524707,1.61
1764750920.530965,1.66
1764750920.5372329,1.65
1764750920.5437398,1.66
1764750920.54971,1.71
1764750920.555968,1.61
1764750920.562253,1.6
1764750920.568424,1.64
1764750920.5746439,1.59
1764750920.58085,1.61
1764750920.58723,1.56
1764750920.593579,1.57
1764750920.59972,1.61
1764750920.6059258,1.52
1764750920.612405,1.53
1764750920.6184042,1.57
1764750920.624653,1.52
1764750920.630919,1.57
1764750920.637235,1.56
1764750920.64356,1.53
1764750920.649745,1.58
1764750920.655898,1.52
1764750920.662451,1.59
1764750920.668544,1.6
1764750920.674695,1.54
1764750920.680945,1.6
1764750920.6872268,1.58
1764750920.6934981,1.56
1764750920.6997461,1.63
1764750920.705892,1.55
1764750920.7123609,1.59
1764750920.7183979,1.6
1764750920.724693,1.53
1764750920.730974,1.62
1764750920.737185,1.57
1764750920.743498,1.53
1764750920.749707,1.61
1764750920.755948,1.56
1764750920.7623029,1.57
1764750920.768467,1.59
1764750920.774681,1.55
1764750920.780979,1.59
1764750920.787167,1.57
1764750920.79357,1.57
1764750920.79967,1.66
1764750920.805813,1.67
1764750920.813282,1.71
1764750920.8184378,1.75
1764750920.824639,1.78
1764750920.830888,1.88
1764750920.837297,1.79
1764750920.8435578,1.73
1764750920.8496761,1.77
1764750920.855853,1.6
1764750920.8622541,1.54
1764750920.8684192,1.57
1764750920.8746629,1.48
1764750920.8808808,1.5
1764750920.88711,1.49
1764750920.8934422,1.46
1764750920.899619,1.48
1764750920.905975,1.46
1764750920.912181,1.5
1764750920.9184482,1.5
1764750920.924607,1.44
1764750920.930866,1.51
1764750920.93722,1.5
1764750920.943392,1.48
1764750920.9496262,1.52
1764750920.955946,1.56
1764750920.962333,1.88
1764750920.9684439,2.58
1764750920.974565,3.01
1764750920.980862,2.9
1764750920.987117,1.96
1764750920.9934342,0.96
1764750920.9995751,1.25
1764750921.005907,1.65
1764750921.0121632,1.58
1764750921.0183868,1.44
1764750921.024619,1.41
1764750921.0308669,1.52
1764750921.037122,1.5
1764750921.043423,1.45
1764750921.049613,1.52
1764750921.0558012,1.48
1764750921.0622358,1.5
1764750921.0687602,1.54
1764750921.074666,1.49
1764750921.080954,1.52
1764750921.086997,1.52
1764750921.093441,1.51
1764750921.099643,1.54
1764750921.105862,1.51
1764750921.1121018,1.56
1764750921.118248,1.59
1764750921.124565,1.52
1764750921.130764,1.58
1764750921.137045,1.59
1764750921.143349,1.57
1764750921.149618,1.63
1764750921.155819,1.59
1764750921.16208,1.64
1764750921.168368,1.64
1764750921.1745842,1.58
1764750921.180777,1.68
1764750921.187089,1.64
1764750921.1933389,1.6
1764750921.1995342,1.66
1764750921.205819,1.63
1764750921.212228,1.65
1764750921.218415,1.65
1764750921.224563,1.6
1764750921.230964,1.63
1764750921.2370188,1.62
1764750921.243351,1.58
1764750921.249567,1.63
1764750921.255831,1.55
1764750921.262105,1.56
1764750921.268409,1.59
1764750921.2745652,1.51
1764750921.280849,1.54
1764750921.2870872,1.54
1764750921.2933068,1.53
1764750921.2995672,1.56
1764750921.3058019,1.53
1764750921.3121228,1.54
1764750921.318224,1.57
1764750921.32459,1.53
1764750921.3309498,1.58
1764750921.3369868,1.56
1764750921.343324,1.53
1764750921.34972,1.59
1764750921.3557708,1.58
1764750921.3620448,1.62
1764750921.3683252,1.62
1764750921.374561,1.53
1764750921.380933,1.59
1764750921.386949,1.57
1764750921.39329,1.57
1764750921.39954,1.64
1764750921.405791,1.54
1764750921.412181,1.55
1764750921.4183412,1.59
1764750921.4245708,1.51
1764750921.430741,1.56
1764750921.4369888,1.57
1764750921.4432771,1.52
1764750921.449616,1.55
1764750921.4557571,1.55
1764750921.4623842,1.57
1764750921.46826,1.6
1764750921.4745312,1.61
1764750921.4807942,1.71
1764750921.487,1.65
1764750921.493265,1.64
1764750921.499546,1.85
1764750921.5057821,1.83
1764750921.5120609,1.76
1764750921.518274,1.73
1764750921.524571,1.68
1764750921.530863,1.63
1764750921.536941,1.51
1764750921.54361,1.5
1764750921.5496,1.55
1764750921.5557911,1.42
1764750921.56209,1.42
1764750921.568268,1.5
1764750921.574768,1.45
1764750921.580791,1.49
1764750921.586932,1.47
1764750921.5932338,1.44
1764750921.599434,1.49
1764750921.605702,1.43
1764750921.612103,1.47
1764750921.618397,1.5
1764750921.6246898,1.41
1764750921.630775,1.54
1764750921.636925,1.72
1764750921.643262,2.24
1764750921.649455,3.05
1764750921.655712,3.02
1764750921.703088,2.29
1764750921.703203,1.09
1764750921.703275,1.02
1764750921.703342,1.66
1764750921.703719,1.61
1764750921.704878,1.37
1764750921.704952,1.47
1764750921.715497,1.48
1764750921.715613,1.46
1764750921.725423,1.47
1764750921.726271,1.47
1764750921.731072,1.53
1764750921.737102,1.48
1764750921.744679,1.46
1764750921.749575,1.55
1764750921.755766,1.5
1764750921.768712,1.51
1764750921.768848,1.55
1764750921.774442,1.52
1764750921.780698,1.54
1764750921.787039,1.51
1764750921.793299,1.53
1764750921.799477,1.62
1764750921.805792,1.54
1764750921.812086,1.54
1764750921.818191,1.6
1764750921.824422,1.58
1764750921.830816,1.62
1764750921.8368828,1.6
1764750921.843273,1.62
1764750921.849476,1.65
1764750921.855648,1.57
1764750921.8620758,1.63
1764750921.8682082,1.68
1764750921.87442,1.6
1764750921.880706,1.66
1764750921.886873,1.64
1764750921.893162,1.59
1764750921.8994932,1.64
1764750921.90566,1.58
1764750921.911947,1.6
1764750921.9181771,1.63
1764750921.924434,1.56
1764750921.930657,1.57
1764750921.936888,1.54
1764750921.943168,1.53
1764750921.949441,1.58
1764750921.955595,1.5
1764750921.961974,1.52
1764750921.9681652,1.54
1764750921.9744482,1.49
1764750921.9806762,1.55
1764750921.9868789,1.54
1764750921.993263,1.5
1764750921.99939,1.57
1764750922.005785,1.52
1764750922.012049,1.53
1764750922.01824,1.6
1764750922.024433,1.54
1764750922.030708,1.58
1764750922.0369961,1.57
1764750922.043149,1.54
1764750922.049382,1.63
1764750922.05569,1.66
1764750922.061904,1.63
1764750922.068186,1.55
1764750922.074369,1.52
1764750922.08063,1.6
1764750922.0870368,1.57
1764750922.093152,1.54
1764750922.100022,1.59
1764750922.1056461,1.55
1764750922.111902,1.59
1764750922.118227,1.59
1764750922.12439,1.52
1764750922.1307259,1.59
1764750922.137343,1.57
1764750922.143166,1.53
1764750922.14952,1.58
1764750922.155815,1.61
1764750922.161867,1.68
1764750922.168246,1.68
1764750922.174419,1.67
1764750922.180619,1.84
1764750922.186891,1.86
1764750922.1930869,1.79
1764750922.1995552,1.77
1764750922.205607,1.69
1764750922.211861,1.67
1764750922.218143,1.57
1764750922.2243881,1.51
1764750922.2306108,1.57
1764750922.236842,1.48
1764750922.243166,1.43
1764750922.249341,1.52
1764750922.2556171,1.49
1764750922.262005,1.49
1764750922.268193,1.49
1764750922.274364,1.46
1764750922.2808452,1.52
1764750922.286931,1.5
1764750922.293969,1.47
1764750922.299314,1.55
1764750922.3056571,1.5
1764750922.311806,1.55
1764750922.318155,1.71
1764750922.324369,2.11
1764750922.3305311,2.9
1764750922.3367732,3.06
1764750922.343165,2.56
1764750922.3492339,1.43
1764750922.355552,0.96
1764750922.361842,1.53
1764750922.3683,1.69
1764750922.374221,1.44
1764750922.3805382,1.46
1764750922.386795,1.49
1764750922.393291,1.48
1764750922.399307,1.53
1764750922.405567,1.5
1764750922.4118268,1.52
1764750922.4181309,1.52
1764750922.424327,1.48
1764750922.430552,1.57
1764750922.4368708,1.54
1764750922.443163,1.53
1764750922.449294,1.57
1764750922.455564,1.51
1764750922.462174,1.57
1764750922.468097,1.58
1764750922.474442,1.54
1764750922.4805691,1.6
1764750922.4868171,1.59
1764750922.493265,1.58
1764750922.499381,1.63
1764750922.5055249,1.57
1764750922.5118148,1.62
1764750922.5180118,1.64
1764750922.5243368,1.58
1764750922.53052,1.66
1764750922.536739,1.64
1764750922.54312,1.59
1764750922.5492082,1.68
1764750922.555549,1.64
1764750922.562237,1.64
1764750922.568058,1.63
1764750922.574259,1.61
1764750922.580617,1.68
1764750922.586752,1.62
1764750922.594642,1.6
1764750922.599297,1.66
1764750922.6055539,1.61
1764750922.611893,1.58
1764750922.61808,1.57
1764750922.624319,1.52
1764750922.630498,1.62
1764750922.636734,1.59
1764750922.643122,1.52
1764750922.649245,1.56
1764750922.655543,1.51
1764750922.661737,1.54
1764750922.668054,1.6
1764750922.6742358,1.54
1764750922.680501,1.58
1764750922.6867998,1.61
1764750922.693171,1.55
1764750922.699269,1.54
1764750922.705493,1.52
1764750922.7118661,1.58
1764750922.718066,1.6
1764750922.7242188,1.55
1764750922.730614,1.61
1764750922.736779,1.58
1764750922.7441611,1.54
1764750922.7493172,1.59
1764750922.7555242,1.54
1764750922.7620952,1.58
1764750922.768048,1.57
1764750922.7742898,1.53
1764750922.7805572,1.6
1764750922.786815,1.54
1764750922.794037,1.52
1764750922.7992861,1.59
1764750922.8055649,1.53
1764750922.8122392,1.53
1764750922.8183172,1.58
1764750922.824285,1.57
1764750922.830716,1.68
1764750922.836894,1.67
1764750922.845044,1.65
1764750922.849226,1.78
1764750922.855529,1.8
1764750922.861907,1.79
1764750922.868095,1.69
1764750922.87438,1.65
1764750922.8804648,1.67
1764750922.886773,1.53
1764750922.893962,1.46
1764750922.899266,1.52
1764750922.905531,1.45
1764750922.912137,1.44
1764750922.91807,1.52
1764750922.92431,1.47
1764750922.93053,1.48
1764750922.936734,1.45
1764750922.942985,1.47
1764750922.949271,1.53
1764750922.955887,1.46
1764750922.963729,1.49
1764750922.968008,1.53
1764750922.9743512,1.46
1764750922.9805691,1.53
1764750922.986763,1.66
1764750922.993113,2.17
1764750922.999312,2.99
1764750923.005559,3.02
1764750923.011717,2.46
1764750923.0180411,1.34
1764750923.024283,1.02
1764750923.0306509,1.55
1764750923.03676,1.59
1764750923.0436108,1.41
1764750923.0493498,1.49
1764750923.0556428,1.5
1764750923.061768,1.5
1764750923.068476,1.47
1764750923.076452,1.43
1764750923.080601,1.53
1764750923.086708,1.5
1764750923.092983,1.46
1764750923.099326,1.52
1764750923.1055942,1.46
1764750923.1117399,1.47
1764750923.117944,1.56
1764750923.124144,1.5
1764750923.130473,1.53
1764750923.136754,1.53
1764750923.1429162,1.55
1764750923.1492102,1.56
1764750923.15568,1.55
1764750923.1630652,1.62
1764750923.167964,1.59
1764750923.1741629,1.51
1764750923.180564,1.62
1764750923.18662,1.6
1764750923.1929018,1.54
1764750923.19917,1.62
1764750923.2053819,1.58
1764750923.2117429,1.6
1764750923.217961,1.65
1764750923.224155,1.58
1764750923.230504,1.63
1764750923.23665,1.6
1764750923.242964,1.58
1764750923.2499561,1.61
1764750923.255578,1.57
1764750923.261703,1.61
1764750923.267993,1.59
1764750923.274206,1.53
1764750923.2808168,1.59
1764750923.2866619,1.55
1764750923.2931032,1.52
1764750923.299222,1.59
1764750923.305383,1.46
1764750923.311679,1.48
1764750923.3181162,1.58
1764750923.32418,1.52
1764750923.33039,1.54
1764750923.3366568,1.54
1764750923.3430028,1.52
1764750923.349209,1.58
1764750923.3553631,1.49
1764750923.3617558,1.62
1764750923.3678699,1.77
1764750923.374059,1.59
1764750923.380339,1.46
1764750923.3865888,1.47
1764750923.3928618,1.53
1764750923.399067,1.59
1764750923.405377,1.51
1764750923.411634,1.55
1764750923.417803,1.59
1764750923.4241018,1.48
1764750923.430431,1.58
1764750923.436664,1.56
1764750923.442827,1.51
1764750923.449045,1.6
1764750923.4554482,1.53
1764750923.461719,1.55
1764750923.4680178,1.54
1764750923.474188,1.49
1764750923.480358,1.58
1764750923.4866052,1.64
1764750923.492828,1.56
1764750923.499219,1.56
1764750923.505313,1.59
1764750923.511564,1.69
1764750923.565399,1.68
1764750923.5665832,1.6
1764750923.567446,1.79
1764750923.567622,1.81
1764750923.5696378,1.73
1764750923.570773,1.74
1764750923.570936,1.64
1764750923.5711071,1.59
1764750923.578212,1.57
1764750923.5784,1.47
1764750923.585512,1.52
1764750923.586617,1.52
1764750923.592932,1.44
1764750923.599159,1.49
1764750923.605516,1.47
1764750923.611645,1.49
1764750923.617863,1.47
1764750923.624135,1.42
1764750923.6304069,1.53
1764750923.636585,1.47
1764750923.642903,1.46
1764750923.649166,1.52
1764750923.655396,1.44
1764750923.6616518,1.58
1764750923.667916,1.91
1764750923.6741178,2.54
1764750923.6806028,3.05
1764750923.686544,2.88
1764750923.6928132,2.02
1764750923.699084,1.06
1764750923.705329,1.23
1764750923.7116501,1.73
1764750923.717823,1.64
1764750923.7241962,1.41
1764750923.730371,1.52
1764750923.7365959,1.57
1764750923.743078,1.51
1764750923.7490659,1.52
1764750923.755311,1.47
1764750923.761684,1.62
1764750923.767906,1.65
1764750923.77407,1.44
1764750923.780287,1.51
1764750923.786603,1.54
1764750923.792902,1.51
1764750923.7989929,1.56
1764750923.805254,1.52
1764750923.811581,1.57
1764750923.817858,1.6
1764750923.824152,1.56
1764750923.830369,1.65
1764750923.836528,1.64
1764750923.8428109,1.62
1764750923.849074,1.68
1764750923.855297,1.61
1764750923.861495,1.56
1764750923.8678029,1.58
1764750923.873992,1.59
1764750923.880227,1.76
1764750923.886545,1.65
1764750923.89303,1.52
1764750923.899041,1.63
1764750923.9053,1.63
1764750923.911662,1.65
1764750923.917865,1.7
1764750923.924018,1.65
1764750923.930238,1.71
1764750923.936513,1.6
1764750923.942859,1.62
1764750923.949047,1.7
1764750923.95522,1.52
1764750923.961519,1.51
1764750923.967768,1.58
1764750923.9740338,1.53
1764750923.98029,1.6
1764750923.986502,1.57
1764750923.992913,1.48
1764750923.9989388,1.57
1764750924.005342,1.61
1764750924.011554,1.57
1764750924.017812,1.62
1764750924.023947,1.56
1764750924.030918,1.66
1764750924.036528,1.6
1764750924.043433,1.48
1764750924.048993,1.56
1764750924.055222,1.52
1764750924.061873,1.56
1764750924.067956,1.64
1764750924.074019,1.57
1764750924.080368,1.63
1764750924.086507,1.61
1764750924.0931451,1.61
1764750924.098996,1.61
1764750924.1054342,1.55
1764750924.111521,1.59
1764750924.117713,1.54
1764750924.1239848,1.49
1764750924.130243,1.65
1764750924.1364322,1.58
1764750924.142924,1.57
1764750924.1490219,1.72
1764750924.1552289,1.65
1764750924.161675,1.51
1764750924.1677618,1.53
1764750924.1739829,1.6
1764750924.180316,1.67
1764750924.1864939,1.69
1764750924.1929018,1.78
1764750924.198988,1.89
1764750924.20516,1.72
1764750924.2114391,1.69
1764750924.217706,1.7
1764750924.223906,1.59
1764750924.230241,1.67
1764750924.236445,1.54
1764750924.243362,1.45
1764750924.24898,1.53
1764750924.2552278,1.52
1764750924.261496,1.48
1764750924.267759,1.41
1764750924.273908,1.38
1764750924.280216,1.53
1764750924.2865138,1.5
1764750924.292866,1.48
1764750924.298881,1.54
1764750924.305272,1.48
1764750924.311583,1.5
1764750924.317656,1.56
1764750924.324165,1.57
1764750924.33025,1.91
1764750924.33644,2.66
1764750924.342766,3.14
1764750924.3490078,2.85
1764750924.3552058,1.81
1764750924.361417,1.05
1764750924.367685,1.32
1764750924.3742561,1.53
1764750924.380193,1.54
1764750924.386357,1.49
1764750924.392874,1.47
1764750924.398931,1.54
1764750924.405283,1.53
1764750924.411637,1.57
1764750924.417681,1.52
1764750924.423936,1.37
1764750924.430249,1.46
1764750924.4363499,1.5
1764750924.443017,1.5
1764750924.448972,1.55
1764750924.455132,1.46
1764750924.461419,1.51
1764750924.467626,1.55
1764750924.473979,1.5
1764750924.48018,1.58
1764750924.486378,1.51
1764750924.492716,1.5
1764750924.499027,1.61
1764750924.50526,1.52
1764750924.511411,1.52
1764750924.517629,1.62
1764750924.524006,1.59
1764750924.530186,1.64
1764750924.536424,1.58
1764750924.542815,1.57
1764750924.54893,1.63
1764750924.555555,1.56
1764750924.561652,1.56
1764750924.567627,1.63
1764750924.5740428,1.6
1764750924.580231,1.6
1764750924.586375,1.57
1764750924.592749,1.58
1764750924.5988421,1.64
1764750924.605373,1.55
1764750924.611464,1.57
1764750924.617677,1.6
1764750924.623996,1.53
1764750924.630132,1.56
1764750924.636679,1.5
1764750924.6427982,1.53
1764750924.648921,1.57
1764750924.655186,1.46
1764750924.661477,1.53
1764750924.667646,1.57
1764750924.674054,1.49
1764750924.680139,1.56
1764750924.6864672,1.51
1764750924.692724,1.52
1764750924.698844,1.63
1764750924.705112,1.52
1764750924.711394,1.53
1764750924.7175932,1.61
1764750924.723834,1.53
1764750924.7300842,1.59
1764750924.736442,1.59
1764750924.742657,1.56
1764750924.749033,1.59
1764750924.755158,1.54
1764750924.761455,1.54
1764750924.767668,1.55
1764750924.774009,1.53
1764750924.780106,1.61
1764750924.78643,1.52
1764750924.792823,1.49
1764750924.7987719,1.58
1764750924.8050802,1.52
1764750924.811401,1.53
1764750924.817566,1.56
1764750924.823942,1.53
1764750924.830144,1.61
1764750924.836606,1.61
1764750924.8432379,1.6
1764750924.8488371,1.69
1764750924.855055,1.7
1764750924.861423,1.81
1764750924.867525,1.82
1764750924.874076,1.65
1764750924.880189,1.7
1764750924.886324,1.67
1764750924.892673,1.54
1764750924.8988569,1.53
1764750924.905011,1.52
1764750924.91143,1.7
1764750924.9175522,1.63
1764750924.923807,1.27
1764750924.93011,1.33
1764750924.9364438,1.47
1764750924.9427588,1.49
1764750924.94883,1.51
1764750924.95514,1.43
1764750924.9614751,1.5
1764750924.967673,1.53
1764750924.9739158,1.44
1764750924.980077,1.49
1764750924.986331,1.52
1764750924.992805,1.63
1764750924.998784,2.01
1764750925.0050728,2.64
1764750925.011285,3.08
1764750925.017537,2.85
1764750925.023874,1.76
1764750925.030079,1.01
1764750925.036333,1.37
1764750925.042769,1.7
1764750925.048922,1.6
1764750925.055233,1.38
1764750925.061308,1.49
1764750925.06748,1.56
1764750925.07372,1.48
1764750925.0800729,1.52
1764750925.086289,1.5
1764750925.092736,1.52
1764750925.0987651,1.59
1764750925.104984,1.5
1764750925.111288,1.53
1764750925.117481,1.62
1764750925.123866,1.56
1764750925.130083,1.54
1764750925.136262,1.48
1764750925.142925,1.51
1764750925.148967,1.57
1764750925.155116,1.5
1764750925.161431,1.63
1764750925.167486,1.61
1764750925.173922,1.54
1764750925.180039,1.66
1764750925.186372,1.64
1764750925.192618,1.62
1764750925.237401,1.69
1764750925.237546,1.63
1764750925.263476,1.62
1764750925.263638,1.65
1764750925.2637172,1.6
1764750925.263819,1.69
1764750925.2926679,1.66
1764750925.3038678,1.63
1764750925.3044622,1.68
1764750925.304696,1.6
1764750925.304874,1.66
1764750925.305121,1.66
1764750925.305542,1.57
1764750925.305705,1.65
1764750925.3059,1.63
1764750925.306056,1.59
1764750925.306912,1.6
1764750925.308169,1.54
1764750925.3118012,1.6
1764750925.3466089,1.62
1764750925.346784,1.52
1764750925.346931,1.58
1764750925.347083,1.59
1764750925.347229,1.56
1764750925.348918,1.61
1764750925.355212,1.57
1764750925.361196,1.6
1764750925.367536,1.59
1764750925.373744,1.58
1764750925.3799858,1.65
1764750925.386325,1.57
1764750925.392472,1.63
1764750925.398734,1.73
1764750925.404969,1.62
1764750925.4112709,1.66
1764750925.4175308,1.67
1764750925.4236841,1.6
1764750925.4299672,1.75
1764750925.4362319,1.93
1764750925.442453,1.71
1764750925.4488041,1.94
1764750925.454923,1.89
1764750925.461227,1.48
1764750925.467463,1.73
1764750925.4750988,1.65
1764750925.480052,1.59
1764750925.48621,1.79
1764750925.492492,1.58
1764750925.4988,1.72
1764750925.504951,1.72
1764750925.511146,1.41
1764750925.517431,1.54
1764750925.5238662,1.48
1764750925.5300171,1.53
1764750925.5361412,1.69
1764750925.542955,1.44
1764750925.548691,1.48
1764750925.5549598,1.51
1764750925.561163,1.25
1764750925.567428,1.3
1764750925.5737548,1.2
1764750925.580002,1.14
1764750925.586134,1.25
1764750925.592621,1.05
1764750925.598794,1.11
1764750925.60499,1.14
1764750925.6111538,0.96
1764750925.617397,1.12
1764750925.6237261,1.1
1764750925.629931,1.04
1764750925.636116,1.14
1764750925.6424909,0.93
1764750925.648628,0.96
1764750925.654871,1.14
1764750925.661112,1.11
1764750925.6674309,1.52
1764750925.6736908,2.18
1764750925.680018,2.6
1764750925.6861272,2.55
1764750925.692534,1.46
1764750925.6986759,0.63
1764750925.7049322,1.0
1764750925.711273,1.23
1764750925.717419,1.21
1764750925.723648,1.09
1764750925.72999,1.08
1764750925.736139,1.21
1764750925.7424362,1.16
1764750925.748621,1.26
1764750925.7548292,1.26
1764750925.7610712,1.08
1764750925.767379,1.27
1764750925.7736058,1.31
1764750925.779948,1.22
1764750925.786104,1.31
1764750925.792432,1.3
1764750925.798641,1.35
1764750925.8048482,1.37
1764750925.811146,1.27
1764750925.8173928,1.43
1764750925.823607,1.4
1764750925.829887,1.35
1764750925.83615,1.49
1764750925.8427572,1.38
1764750925.8486001,1.44
1764750925.854825,1.56
1764750925.861096,1.43
1764750925.8673348,1.54
1764750925.873656,1.52
1764750925.8799381,1.46
1764750925.886035,1.58
1764750925.892364,1.53
1764750925.898667,1.54
1764750925.9048069,1.54
1764750925.9112399,1.46
1764750925.917401,1.61
1764750925.923647,1.58
1764750925.9299982,1.52
1764750925.93613,1.62
1764750925.942503,1.54
1764750925.9487581,1.57
1764750925.954897,1.62
1764750925.961153,1.49
1764750925.967353,1.6
1764750925.973761,1.57
1764750925.979847,1.52
1764750925.986092,1.61
1764750925.992778,1.52
1764750925.998563,1.52
1764750926.004797,1.62
1764750926.011085,1.53
1764750926.017341,1.64
1764750926.023697,1.6
1764750926.029809,1.56
1764750926.036077,1.74
1764750926.0423849,1.66
1764750926.048587,1.62
1764750926.054718,1.63
1764750926.061098,1.52
1764750926.06729,1.65
1764750926.073663,1.64
1764750926.079909,1.58
1764750926.0860858,1.71
1764750926.09268,1.62
1764750926.098654,1.66
1764750926.1048698,1.71
1764750926.111059,1.6
1764750926.117425,1.72
1764750926.1236422,1.7
1764750926.130032,1.63
1764750926.1360378,1.74
1764750926.1427252,1.65
1764750926.1486652,1.67
1764750926.1549718,1.71
1764750926.1613529,1.66
1764750926.167418,1.83
1764750926.173633,1.77
1764750926.179859,1.7
1764750926.186201,1.92
1764750926.19242,1.94
1764750926.198567,1.93
1764750926.20482,1.97
1764750926.211107,1.8
1764750926.217312,1.88
1764750926.223681,1.8
1764750926.229813,1.64
1764750926.236036,1.72
1764750926.2423959,1.61
1764750926.248542,1.61
1764750926.2547572,1.68
1764750926.261079,1.57
1764750926.267287,1.64
1764750926.2737238,1.62
1764750926.279764,1.6
1764750926.2859268,1.71
1764750926.292403,1.6
1764750926.298517,1.64
1764750926.3047879,1.7
1764750926.311014,1.57
1764750926.317466,1.63
1764750926.323733,1.72
1764750926.329813,1.92
1764750926.3360808,2.63
1764750926.3423738,3.13
1764750926.3485749,3.08
1764750926.354811,2.43
1764750926.361038,1.16
1764750926.367367,1.3
1764750926.373589,1.82
1764750926.37982,1.74
1764750926.3861408,1.63
1764750926.392357,1.59
1764750926.3986628,1.65
1764750926.4048588,1.66
1764750926.410982,1.52
1764750926.4176571,1.65
1764750926.4237351,1.63
1764750926.429832,1.59
1764750926.436068,1.71
1764750926.44238,1.6
1764750926.448517,1.64
1764750926.454737,1.74
1764750926.461159,1.64
1764750926.4672441,1.75
1764750926.4735548,1.72
1764750926.479981,1.68
1764750926.4861271,1.82
1764750926.492278,1.74
1764750926.498446,1.78
1764750926.5047638,1.79
1764750926.5111082,1.67
1764750926.5172548,1.8
1764750926.523484,1.79
1764750926.530019,1.73
1764750926.536008,1.83
1764750926.543061,1.69
1764750926.548491,1.76
1764750926.555239,1.85
1764750926.561829,1.68
1764750926.5672052,1.79
1764750926.57356,1.77
1764750926.5798001,1.73
1764750926.677373,1.81
1764750926.677585,1.7
1764750926.6777642,1.77
1764750926.677942,1.79
1764750926.679061,1.71
1764750926.6792572,1.81
1764750926.6794481,1.73
1764750926.67963,1.72
1764750926.679817,1.85
1764750926.6800032,1.68
1764750926.680185,1.8
1764750926.680372,1.85
1764750926.680554,1.69
1764750926.68073,1.88
1764750926.6809258,1.8
1764750926.685646,1.72
1764750926.685927,1.85
1764750926.7237089,1.74
1764750926.7238898,1.79
1764750926.724063,1.85
1764750926.724479,1.71
1764750926.724704,1.82
1764750926.724878,1.79
1764750926.730853,1.73
1764750926.737664,1.85
1764750926.74401,1.75
1764750926.748512,1.75
1764750926.754833,1.74
1764750926.761027,1.67
1764750926.767352,1.82
1764750926.773507,1.73
1764750926.779721,1.64
1764750926.785978,1.79
1764750926.792311,1.69
1764750926.7984462,1.72
1764750926.80478,1.81
1764750926.8114932,1.67
1764750926.817322,1.76
1764750926.823665,1.79
1764750926.8312,1.76
1764750926.85166,1.87
1764750926.851983,1.87
1764750926.852146,1.97
1764750926.85465,1.93
1764750926.860972,1.8
1764750926.867291,1.96
1764750926.873497,1.75
1764750926.879711,1.53
1764750926.885938,1.67
1764750926.8922188,1.54
1764750926.898777,1.52
1764750926.904674,1.56
1764750926.9110248,1.49
1764750926.9173162,1.61
1764750926.9247072,1.55
1764750926.9297411,1.45
1764750926.9359071,1.56
1764750926.94227,1.53
1764750926.9484868,1.62
1764750926.954568,1.59
1764750926.960961,1.42
1764750926.967197,1.55
1764750926.9744372,1.54
1764750926.979763,1.72
1764750926.986075,2.62
1764750926.992747,3.05
1764750926.998454,2.84
1764750927.0047302,2.02
1764750927.010918,0.91
1764750927.017233,1.22
1764750927.023484,1.68
1764750927.0297039,1.5
1764750927.035908,1.45
1764750927.0428102,1.4
1764750927.048474,1.43
1764750927.05461,1.51
1764750927.060817,1.4
1764750927.067109,1.47
1764750927.073549,1.45
1764750927.0796149,1.41
1764750927.0858848,1.52
1764750927.092204,1.41
1764750927.098378,1.5
1764750927.104586,1.55
1764750927.1108968,1.4
1764750927.1171699,1.51
1764750927.123565,1.5
1764750927.1296089,1.48
1764750927.135849,1.6
1764750927.1423419,1.49
1764750927.148368,1.52
1764750927.154614,1.57
1764750927.160993,1.48
1764750927.167116,1.62
1764750927.1733902,1.61
1764750927.179629,1.54
1764750927.185955,1.63
1764750927.19217,1.54
1764750927.198472,1.56
1764750927.2045991,1.66
1764750927.210932,1.57
1764750927.217085,1.62
1764750927.224307,1.58
1764750927.2296598,1.54
1764750927.2357929,1.65
1764750927.2422342,1.54
1764750927.248374,1.59
1764750927.254588,1.65
1764750927.260845,1.52
1764750927.26722,1.59
1764750927.2744792,1.57
1764750927.2796512,1.53
1764750927.285789,1.62
1764750927.2920802,1.5
1764750927.298348,1.54
1764750927.304557,1.61
1764750927.3108292,1.49
1764750927.317255,1.56
1764750927.323487,1.53
1764750927.3295622,1.5
1764750927.335744,1.59
1764750927.34247,1.55
1764750927.348361,1.61
1764750927.3545332,1.6
1764750927.360776,1.5
1764750927.367233,1.64
1764750927.37347,1.6
1764750927.379765,1.53
1764750927.385776,1.62
1764750927.392286,1.58
1764750927.3983219,1.61
1764750927.4045131,1.62
1764750927.4108002,1.51
1764750927.417006,1.61
1764750927.42331,1.59
1764750927.429579,1.54
1764750927.4357738,1.62
1764750927.442313,1.53
1764750927.448399,1.61
1764750927.454491,1.71
1764750927.460901,1.62
1764750927.467062,1.69
1764750927.473304,1.77
1764750927.479577,1.8
1764750927.4858189,1.89
1764750927.492123,1.72
1764750927.4984488,1.72
1764750927.5046358,1.76
1764750927.5108218,1.53
1764750927.5171158,1.56
1764750927.5233438,1.55
1764750927.529569,1.51
1764750927.535851,1.56
1764750927.542124,1.51
1764750927.548353,1.58
1764750927.5544388,1.56
1764750927.560765,1.44
1764750927.5670888,1.61
1764750927.573335,1.59
1764750927.57956,1.53
1764750927.585917,1.61
1764750927.592522,1.53
1764750927.598182,1.55
1764750927.604536,1.56
1764750927.6107259,1.53
1764750927.6170628,1.99
1764750927.623341,2.74
1764750927.629524,3.12
1764750927.6358452,2.98
1764750927.642102,1.86
1764750927.648319,1.0
1764750927.654922,1.43
1764750927.660697,1.68
1764750927.6670458,1.63
1764750927.6734269,1.48
1764750927.6795452,1.49
1764750927.685781,1.66
1764750927.691947,1.55
1764750927.698163,1.6
1764750927.704471,1.67
1764750927.710763,1.57
1764750927.717036,1.69
1764750927.723592,1.66
1764750927.729613,1.61
1764750927.735762,1.75
1764750927.741966,1.66
1764750927.748254,1.71
1764750927.7546089,1.77
1764750927.760839,1.67
1764750927.767104,1.76
1764750927.7734,1.74
1764750927.7796,1.73
1764750927.7858438,1.82
1764750927.791946,1.72
1764750927.798156,1.79
1764750927.804409,1.85
1764750927.810703,1.72
1764750927.817269,1.82
1764750927.824547,1.81
1764750927.829494,1.76
1764750927.835774,1.85
1764750927.842734,1.79
1764750927.849247,1.82
1764750927.854431,1.84
1764750927.860662,1.76
1764750927.867125,1.89
1764750927.8735218,1.84
1764750927.879529,1.76
1764750927.885793,1.93
1764750927.8925388,1.82
1764750927.8986309,1.77
1764750927.904566,1.82
1764750927.91076,1.79
1764750927.917089,1.86
1764750927.925039,1.78
1764750927.929593,1.74
1764750927.93586,1.83
1764750927.942703,1.68
1764750927.94862,1.76
1764750927.954546,1.89
1764750927.960764,1.76
1764750927.967395,1.81
1764750927.973495,1.79
1764750927.981453,1.79
1764750927.985697,1.89
1764750927.992024,1.79
1764750927.998454,1.86
1764750928.0046148,1.88
1764750928.0107489,1.79
1764750928.0170739,1.94
1764750928.023461,1.86
1764750928.0295029,1.85
1764750928.0358121,1.97
1764750928.0419462,1.84
1764750928.048181,1.89
1764750928.054389,1.93
1764750928.060699,1.85
1764750928.066873,1.99
1764750928.073306,1.91
1764750928.079437,1.88
1764750928.08567,2.03
1764750928.0918741,1.88
1764750928.098102,1.96
1764750928.104397,2.06
1764750928.110688,1.95
1764750928.1169548,2.11
1764750928.123191,2.2
1764750928.129371,2.18
1764750928.135541,2.23
1764750928.14199,2.09
1764750928.148119,2.15
1764750928.1543932,2.11
1764750928.1606011,1.84
1764750928.166843,1.96
1764750928.17341,1.96
1764750928.179296,1.86
1764750928.185741,1.94
1764750928.1918669,1.84
1764750928.198145,1.89
1764750928.204483,1.98
1764750928.21064,1.87
1764750928.2169511,1.92
1764750928.223165,1.9
1764750928.2295098,1.89
1764750928.235776,1.99
1764750928.242849,1.87
1764750928.248205,1.91
1764750928.257122,2.04
1764750928.26061,2.09
1764750928.267066,2.69
1764750928.2732968,3.16
1764750928.279472,3.16
1764750928.28568,3.15
1764750928.291931,2.16
1764750928.298184,1.32
1764750928.304438,1.86
1764750928.3107042,2.06
1764750928.316952,1.99
1764750928.330645,1.84
1764750928.333591,1.84
1764750928.353975,2.01
1764750928.358331,1.88
1764750928.363494,1.91
1764750928.397897,1.95
1764750928.404515,1.84
1764750928.4082491,1.96
1764750928.4139671,1.96
1764750928.428513,1.87
1764750928.428757,2.0
1764750928.429468,1.94
1764750928.429673,1.95
1764750928.4298692,2.0
1764750928.430067,1.95
1764750928.43026,2.08
1764750928.431115,2.0
1764750928.4313128,1.91
1764750928.435762,2.07
1764750928.4610271,2.0
1764750928.461225,2.0
1764750928.461375,2.08
1764750928.4615412,2.01
1764750928.466845,2.1
1764750928.4759219,2.06
1764750928.480549,2.04
1764750928.485604,2.16
1764750928.49207,2.0
1764750928.4981818,2.05
1764750928.504857,2.18
1764750928.510634,2.06
1764750928.516885,2.1
1764750928.523187,2.09
1764750928.529331,2.08
1764750928.535558,2.16
1764750928.541945,2.06
1764750928.548061,2.11
1764750928.554584,2.15
1764750928.5606751,2.01
1764750928.5667992,2.12
1764750928.573144,2.09
1764750928.579259,2.02
1764750928.585508,2.14
1764750928.59186,2.05
1764750928.5981061,2.05
1764750928.604359,2.13
1764750928.610482,2.07
1764750928.616867,2.17
1764750928.623147,2.12
1764750928.629241,2.09
1764750928.635474,2.21
1764750928.641778,2.12
1764750928.648059,2.11
1764750928.654359,2.19
1764750928.660529,2.1
1764750928.666734,2.17
1764750928.673064,2.14
1764750928.6792362,2.11
1764750928.6855512,2.22
1764750928.69189,2.13
1764750928.69804,2.14
1764750928.704483,2.2
1764750928.710539,2.09
1764750928.716724,2.17
1764750928.723167,2.18
1764750928.729294,2.17
1764750928.735592,2.25
1764750928.741792,2.12
1764750928.7480268,2.17
1764750928.754403,2.33
1764750928.760525,2.29
1764750928.766815,2.36
1764750928.773041,2.38
1764750928.779279,2.44
1764750928.7855098,2.56
1764750928.79183,2.38
1764750928.798055,2.37
1764750928.804799,2.44
1764750928.8104908,2.15
1764750928.816816,2.14
1764750928.823122,2.19
1764750928.829248,2.14
1764750928.835489,2.17
1764750928.841853,2.04
1764750928.8479722,2.11
1764750928.854351,2.17
1764750928.8606021,2.05
1764750928.8667252,2.1
1764750928.873941,2.11
1764750928.8791559,2.12
1764750928.885443,2.2
1764750928.8917272,2.06
1764750928.898019,2.07
1764750928.904308,2.21
1764750928.910531,2.2
1764750928.9168398,2.69
1764750928.923171,3.16
1764750928.9292119,3.17
1764750928.935495,3.17
1764750928.94183,2.92
1764750928.947988,1.69
1764750928.954331,1.7
1764750928.960599,2.23
1764750928.966845,2.29
1764750928.9734242,1.96
1764750928.980236,1.95
1764750928.985507,2.15
1764750928.992168,2.02
1764750928.998042,2.01
1764750929.004234,2.03
1764750929.0105112,1.95
1764750929.016723,2.07
1764750929.023366,2.07
1764750929.029304,2.02
1764750929.035603,2.06
1764750929.041875,1.89
1764750929.048037,1.96
1764750929.054302,2.04
1764750929.0604842,1.89
1764750929.066769,1.98
1764750929.072961,1.98
1764750929.079254,1.91
1764750929.085493,1.99
1764750929.091789,1.9
1764750929.09798,1.95
1764750929.104223,1.99
1764750929.110487,1.88
1764750929.116766,1.96
1764750929.124235,1.92
1764750929.1292212,1.88
1764750929.135675,1.96
1764750929.141856,1.84
1764750929.147964,1.86
1764750929.1544,1.92
1764750929.160651,1.8
1764750929.166753,1.9
1764750929.17315,1.88
1764750929.1791449,1.82
1764750929.185545,1.91
1764750929.191823,1.8
1764750929.1979132,1.86
1764750929.2042549,1.83
1764750929.210463,1.7
1764750929.21677,1.8
1764750929.223416,1.74
1764750929.229128,1.69
1764750929.2353868,1.78
1764750929.241649,1.7
1764750929.247873,1.72
1764750929.2541142,1.74
1764750929.260402,1.63
1764750929.2666502,1.78
1764750929.2729669,1.74
1764750929.279197,1.64
1764750929.285368,1.76
1764750929.291718,1.68
1764750929.2978911,1.72
1764750929.3040829,1.75
1764750929.310438,1.61
1764750929.316643,1.72
1764750929.322988,1.65
1764750929.329212,1.63
1764750929.335335,1.74
1764750929.341851,1.62
1764750929.347861,1.61
1764750929.354461,1.65
1764750929.360482,1.57
1764750929.366682,1.67
1764750929.3740458,1.62
1764750929.379206,1.55
1764750929.3853922,1.66
1764750929.391687,1.57
1764750929.398043,1.61
1764750929.404165,1.64
1764750929.410403,1.54
1764750929.416644,1.63
1764750929.42292,1.58
1764750929.429185,1.6
1764750929.435344,1.75
1764750929.441687,1.62
1764750929.4478579,1.64
1764750929.454156,1.82
1764750929.460452,1.82
1764750929.466644,1.88
1764750929.472918,1.74
1764750929.479299,1.65
1764750929.485456,1.68
1764750929.491658,1.47
1764750929.497924,1.43
1764750929.5062242,1.46
1764750929.5108328,1.35
1764750929.5166059,1.42
1764750929.523032,1.39
1764750929.529278,1.35
1764750929.535508,1.45
1764750929.541614,1.35
1764750929.547843,1.34
1764750929.5550458,1.38
1764750929.560477,1.3
1764750929.566689,1.41
1764750929.572893,1.34
1764750929.579144,1.27
1764750929.5853791,1.43
1764750929.591567,1.47
1764750929.597824,2.0
1764750929.604286,2.78
1764750929.61027,2.82
1764750929.616627,2.34
1764750929.623163,1.12
1764750929.6291552,0.75
1764750929.635391,1.38
1764750929.6416168,1.41
1764750929.647958,1.2
1764750929.654306,1.2
1764750929.660429,1.17
1764750929.666649,1.26
1764750929.6730502,1.18
1764750929.679136,1.16
1764750929.685281,1.29
1764750929.691573,1.15
1764750929.6978428,1.17
1764750929.704432,1.25
1764750929.710338,1.17
1764750929.716587,1.25
1764750929.722908,1.17
1764750929.729154,1.17
1764750929.7352839,1.29
1764750929.741565,1.16
1764750929.7478132,1.18
1764750929.7541802,1.25
1764750929.760275,1.21
1764750929.766655,1.29
1764750929.772984,1.22
1764750929.7790122,1.19
1764750929.785279,1.3
1764750929.79157,1.22
1764750929.797786,1.24
1764750929.804537,1.29
1764750929.81019,1.18
1764750929.8165271,1.3
1764750929.822891,1.25
1764750929.828972,1.19
1764750929.835266,1.31
1764750929.841553,1.21
1764750929.8478332,1.21
1764750929.8540459,1.27
1764750929.86025,1.17
1764750929.866498,1.27
1764750929.8729,1.23
1764750929.8790982,1.17
1764750929.8852868,1.23
1764750929.891605,1.14
1764750929.8980281,1.19
1764750929.904151,1.2
1764750929.9103382,1.07
1764750929.9165308,1.19
1764750929.923261,1.17
1764750929.929143,1.11
1764750929.93534,1.21
1764750929.941788,1.13
1764750929.947826,1.19
1764750929.954201,1.24
1764750929.9602208,1.08
1764750929.966491,1.17
1764750929.972975,1.21
1764750929.9790661,1.15
1764750929.985239,1.24
1764750929.991477,1.12
1764750929.997824,1.15
1764750930.046738,1.21
1764750930.0469198,1.15
1764750930.047084,1.25
1764750930.047248,1.19
1764750930.047411,1.12
1764750930.0475788,1.25
1764750930.0477471,1.16
1764750930.047918,1.18
1764750930.0604532,1.21
1764750930.060692,1.12
1764750930.066765,1.22
1764750930.0728252,1.18
1764750930.079075,1.16
1764750930.085351,1.24
1764750930.0916858,1.14
1764750930.097856,1.2
1764750930.104038,1.23
1764750930.110424,1.14
1764750930.117208,1.35
1764750930.122762,1.36
1764750930.1291761,1.25
1764750930.135416,1.41
1764750930.141564,1.46
1764750930.1481469,1.48
1764750930.154092,1.43
1764750930.160248,1.3
1764750930.1665862,1.4
1764750930.1730108,1.23
1764750930.179126,1.13
1764750930.1854131,1.23
1764750930.19162,1.11
1764750930.197783,1.13
1764750930.2040992,1.18
1764750930.210298,1.1
1764750930.216497,1.18
1764750930.222848,1.15
1764750930.228985,1.15
1764750930.235255,1.28
1764750930.241714,1.12
1764750930.247743,1.14
1764750930.254016,1.24
1764750930.260204,1.13
1764750930.2664268,1.26
1764750930.272963,1.35
1764750930.27895,1.67
1764750930.285179,2.49
1764750930.291521,2.71
1764750930.297717,2.4
1764750930.303961,1.43
1764750930.310295,0.65
1764750930.316525,1.06
1764750930.3227499,1.34
1764750930.3289988,1.24
1764750930.335231,1.21
1764750930.341451,1.13
1764750930.34778,1.23
1764750930.354155,1.26
1764750930.360209,1.13
1764750930.366488,1.25
1764750930.372774,1.24
1764750930.378921,1.18
1764750930.385153,1.29
1764750930.3915021,1.24
1764750930.397635,1.26
1764750930.403976,1.31
1764750930.410204,1.23
1764750930.416446,1.33
1764750930.4227,1.3
1764750930.428907,1.31
1764750930.435155,1.4
1764750930.441397,1.3
1764750930.447663,1.33
1764750930.4562361,1.39
1764750930.460201,1.31
1764750930.466505,1.43
1764750930.4727628,1.41
1764750930.4789171,1.37
1764750930.4852679,1.45
1764750930.4914649,1.35
1764750930.49776,1.42
1764750930.504172,1.49
1764750930.510143,1.34
1764750930.5164108,1.43
1764750930.523361,1.4
1764750930.52895,1.38
1764750930.5352619,1.49
1764750930.5413098,1.4
1764750930.547588,1.38
1764750930.554098,1.43
1764750930.560162,1.39
1764750930.566464,1.47
1764750930.5726469,1.36
1764750930.578866,1.36
1764750930.585106,1.48
1764750930.5913742,1.32
1764750930.597585,1.4
1764750930.6039271,1.47
1764750930.61009,1.3
1764750930.616472,1.39
1764750930.622871,1.38
1764750930.628885,1.39
1764750930.6351628,1.43
1764750930.641365,1.37
1764750930.647635,1.47
1764750930.653953,1.47
1764750930.6601942,1.4
1764750930.6665332,1.48
1764750930.672682,1.43
1764750930.6788568,1.45
1764750930.685088,1.49
1764750930.691295,1.38
1764750930.69776,1.47
1764750930.703939,1.5
1764750930.7101812,1.37
1764750930.716234,1.45
1764750930.7227688,1.38
1764750930.7288818,1.34
1764750930.735083,1.41
1764750930.741411,1.34
1764750930.747591,1.43
1764750930.753966,1.35
1764750930.760223,1.17
1764750930.766331,1.26
1764750930.7725818,0.81
1764750930.778826,0.67
1764750930.785045,0.91
1764750930.791362,1.11
1764750930.797544,1.1
1764750930.8040352,1.06
1764750930.8100832,1.29
1764750930.81627,1.3
1764750930.822567,1.27
1764750930.8288372,1.41
1764750930.83508,1.42
1764750930.8415391,1.51
1764750930.847615,1.56
1764750930.854083,1.55
1764750930.860241,1.74
1764750930.866343,1.77
1764750930.8734982,1.67
1764750930.878769,1.7
1764750930.885043,1.65
1764750930.8912158,1.63
1764750930.897662,1.54
1764750930.904127,1.42
1764750930.910246,1.52
1764750930.91648,1.5
1764750930.9226089,1.39
1764750930.9289432,1.52
1764750930.935162,1.53
1764750930.941327,1.51
1764750930.947553,1.5
1764750930.953954,1.48
1764750930.9601521,1.53
1764750930.966411,1.47
1764750930.9726322,1.52
1764750930.978919,1.6
1764750930.985149,1.48
1764750930.991296,1.53
1764750930.997608,1.79
1764750931.004199,2.3
1764750931.010517,3.01
1764750931.016364,2.98
1764750931.022814,2.39
1764750931.028862,1.39
1764750931.035268,1.1
1764750931.0416489,1.59
1764750931.047599,1.7
1764750931.0541701,1.49
1764750931.0601878,1.6
1764750931.066432,1.58
1764750931.072604,1.52
1764750931.0790741,1.59
1764750931.085264,1.52
1764750931.091469,1.5
1764750931.0975082,1.56
1764750931.104026,1.52
1764750931.110156,1.59
1764750931.116391,1.57
1764750931.122585,1.55
1764750931.128939,1.62
1764750931.135009,1.56
1764750931.141216,1.62
1764750931.1476648,1.66
1764750931.153825,1.61
1764750931.160058,1.69
1764750931.1662972,1.61
1764750931.172544,1.55
1764750931.178786,1.68
1764750931.185032,1.63
1764750931.191245,1.63
1764750931.197504,1.64
1764750931.203858,1.65
1764750931.210177,1.74
1764750931.216276,1.67
1764750931.222795,1.66
1764750931.2288861,1.78
1764750931.235052,1.67
1764750931.241272,1.66
1764750931.247518,1.7
1764750931.2540128,1.6
1764750931.260087,1.67
1764750931.266277,1.65
1764750931.272594,1.61
1764750931.278788,1.7
1764750931.285063,1.59
1764750931.291258,1.62
1764750931.297576,1.68
1764750931.304099,1.6
1764750931.3101382,1.65
1764750931.316345,1.54
1764750931.3226008,1.51
1764750931.3289459,1.64
1764750931.3350668,1.54
1764750931.341184,1.56
1764750931.347429,1.67
1764750931.35384,1.56
1764750931.360049,1.57
1764750931.366406,1.61
1764750931.372663,1.6
1764750931.378818,1.65
1764750931.3851311,1.54
1764750931.3912609,1.56
1764750931.3974988,1.63
1764750931.4039192,1.56
1764750931.4101062,1.61
1764750931.416235,1.57
1764750931.42255,1.55
1764750931.429395,1.62
1764750931.435043,1.54
1764750931.441231,1.61
1764750931.447554,1.6
1764750931.453726,1.56
1764750931.459887,1.68
1764750931.4662762,1.55
1764750931.472554,1.46
1764750931.4787579,1.61
1764750931.4849439,1.55
1764750931.491383,1.55
1764750931.497568,1.57
1764750931.5040379,1.52
1764750931.510009,1.59
1764750931.51629,1.57
1764750931.52259,1.56
1764750931.528735,1.6
1764750931.5348759,1.51
1764750931.541235,1.55
1764750931.54748,1.58
1764750931.553802,1.58
1764750931.5598888,1.7
1764750931.566241,1.62
1764750931.572482,1.61
1764750931.578706,1.85
1764750931.584934,1.8
1764750931.591177,1.75
1764750931.5973399,1.73
1764750931.6037261,1.67
1764750931.609876,1.65
1764750931.616077,1.52
1764750931.6223302,1.56
1764750931.628695,1.56
1764750931.6348832,1.33
1764750931.641079,1.38
1764750931.647377,1.46
1764750931.654067,1.42
1764750931.659911,1.5
1764750931.6661499,1.42
1764750931.67247,1.4
1764750931.6786618,1.55
1764750931.707045,1.46
1764750931.707165,1.45
1764750931.707252,1.45
1764750931.707336,1.46
1764750931.7266839,1.68
1764750931.729898,1.9
1764750931.7301278,2.51
1764750931.7339652,3.1
1764750931.741434,2.78
1764750931.7435489,1.86
1764750931.747443,1.09
1764750931.7538571,1.21
1764750931.760291,1.62
1764750931.7661922,1.54
1764750931.772496,1.35
1764750931.778734,1.45
1764750931.784951,1.44
1764750931.7911732,1.48
1764750931.797416,1.48
1764750931.803725,1.36
1764750931.8099682,1.48
1764750931.816223,1.5
1764750931.82235,1.49
1764750931.828628,1.56
1764750931.834898,1.46
1764750931.841182,1.48
1764750931.847719,1.53
1764750931.853706,1.4
1764750931.85987,1.53
1764750931.8662689,1.58
1764750931.872473,1.49
1764750931.8786938,1.53
1764750931.8848839,1.47
1764750931.891289,1.57
1764750931.897419,1.58
1764750931.903754,1.5
1764750931.909976,1.63
1764750931.916116,1.6
1764750931.922507,1.52
1764750931.928611,1.63
1764750931.934891,1.59
1764750931.941134,1.61
1764750931.947318,1.62
1764750931.954137,1.54
1764750931.9599092,1.63
1764750931.966111,1.56
1764750931.972268,1.55
1764750931.978611,1.62
1764750931.9848151,1.55
1764750931.991043,1.58
1764750931.997323,1.59
1764750932.003583,1.49
1764750932.0100548,1.6
1764750932.016097,1.55
1764750932.022414,1.49
1764750932.028615,1.57
1764750932.034921,1.55
1764750932.0412211,1.5
1764750932.047509,1.46
1764750932.053665,1.47
1764750932.05988,1.52
1764750932.06619,1.47
1764750932.0725389,1.46
1764750932.0787,1.58
1764750932.084883,1.5
1764750932.091126,1.5
1764750932.097375,1.58
1764750932.103852,1.51
1764750932.109835,1.55
1764750932.116126,1.53
1764750932.122379,1.55
1764750932.128504,1.6
1764750932.134808,1.51
1764750932.141065,1.52
1764750932.147255,1.57
1764750932.1536489,1.48
1764750932.159828,1.51
1764750932.166074,1.55
1764750932.172332,1.53
1764750932.178755,1.56
1764750932.184932,1.49
1764750932.191067,1.53
1764750932.197299,1.58
1764750932.204104,1.47
1764750932.209814,1.52
1764750932.216021,1.48
1764750932.222253,1.49
1764750932.228535,1.59
1764750932.234806,1.52
1764750932.240997,1.54
1764750932.24734,1.55
1764750932.2537322,1.47
1764750932.25986,1.53
1764750932.2660182,1.52
1764750932.27228,1.52
1764750932.278504,1.6
1764750932.28515,1.58
1764750932.29132,1.65
1764750932.2973819,1.64
1764750932.304657,1.6
1764750932.309973,1.81
1764750932.3162591,1.83
1764750932.322328,1.73
1764750932.328546,1.7
1764750932.334851,1.61
1764750932.341005,1.61
1764750932.347309,1.54
1764750932.353697,1.43
1764750932.3597388,1.52
1764750932.366026,1.45
1764750932.372221,1.43
1764750932.37855,1.5
1764750932.384792,1.41
1764750932.3909419,1.45
1764750932.397278,1.48
1764750932.403519,1.39
1764750932.409729,1.49
1764750932.4159749,1.48
1764750932.422275,1.44
1764750932.4285388,1.49
1764750932.4348722,1.46
1764750932.441,1.57
1764750932.447466,2.04
1764750932.453845,2.74
1764750932.459807,2.98
1764750932.4660878,2.6
1764750932.47222,1.57
1764750932.478501,1.0
1764750932.484828,1.3
1764750932.491041,1.61
1764750932.497272,1.53
1764750932.50381,1.32
1764750932.509887,1.44
1764750932.516059,1.43
1764750932.522295,1.33
1764750932.528492,1.43
1764750932.534697,1.37
1764750932.540946,1.43
1764750932.547298,1.49
1764750932.553632,1.41
1764750932.559773,1.48
1764750932.5660071,1.48
1764750932.572437,1.45
1764750932.578741,1.52
1764750932.584715,1.47
1764750932.590954,1.51
1764750932.597304,1.5
1764750932.6039271,1.47
1764750932.6099021,1.56
1764750932.6160462,1.52
1764750932.622337,1.49
1764750932.628573,1.55
1764750932.6348522,1.56
1764750932.641081,1.6
1764750932.6471722,1.59
1764750932.653635,1.54
1764750932.659852,1.6
1764750932.6660202,1.57
1764750932.672221,1.58
1764750932.678495,1.65
1764750932.685025,1.56
1764750932.6910431,1.6
1764750932.697216,1.63
1764750932.7036002,1.56
1764750932.709774,1.58
1764750932.71605,1.58
1764750932.7221498,1.58
1764750932.728447,1.61
1764750932.7347012,1.48
1764750932.740889,1.52
1764750932.747155,1.6
1764750932.7535071,1.5
1764750932.7596421,1.54
1764750932.765915,1.49
1764750932.7721758,1.46
1764750932.778503,1.52
1764750932.784842,1.46
1764750932.790894,1.51
1764750932.7971032,1.5
1764750932.803493,1.42
1764750932.8099022,1.53
1764750932.81597,1.53
1764750932.822154,1.51
1764750932.828377,1.58
1764750932.834616,1.48
1764750932.8409119,1.51
1764750932.847167,1.6
1764750932.8534012,1.51
1764750932.85984,1.53
1764750932.866293,1.52
1764750932.872299,1.51
1764750932.878675,1.58
1764750932.885387,1.5
1764750932.89121,1.51
1764750932.8974311,1.53
1764750932.90354,1.47
1764750932.9099169,1.57
1764750932.9193,1.56
1764750932.9224021,1.49
1764750932.92853,1.55
1764750932.93534,1.5
1764750932.941035,1.51
1764750932.9473028,1.54
1764750932.953533,1.51
1764750932.95979,1.58
1764750932.966023,1.49
1764750932.972224,1.43
1764750932.978457,1.54
1764750932.985076,1.47
1764750932.99153,1.52
1764750932.997194,1.56
1764750933.0060558,1.45
1764750933.009734,1.51
1764750933.0159621,1.51
1764750933.022163,1.5
1764750933.028567,1.62
1764750933.03476,1.61
1764750933.040969,1.63
1764750933.047147,1.65
1764750933.053419,1.74
1764750933.0597188,1.87
1764750933.0658429,1.74
1764750933.072143,1.64
1764750933.078403,1.73
1764750933.084648,1.61
1764750933.0908642,1.55
1764750933.097124,1.52
1764750933.103498,1.43
1764750933.1095831,1.53
1764750933.115851,1.48
1764750933.122373,1.43
1764750933.1283321,1.5
1764750933.134652,1.45
1764750933.1408992,1.49
1764750933.147142,1.5
1764750933.15346,1.46
1764750933.1596859,1.52
1764750933.16589,1.47
1764750933.172548,1.46
1764750933.178477,1.54
1764750933.18508,1.49
1764750933.254499,1.77
