timestamp,ecg_value
1764751177.673915,1.56
1764751177.680001,1.55
1764751177.686317,1.6
1764751177.692509,1.56
1764751177.6988192,1.58
1764751177.705014,1.58
1764751177.7113652,1.56
1764751177.720203,1.6
1764751177.75748,1.58
1764751177.7583501,1.58
1764751177.758494,1.6
1764751177.7585979,1.55
1764751177.7587368,1.59
1764751177.759014,1.58
1764751177.773213,1.57
1764751177.773338,1.68
1764751177.783978,1.68
1764751177.787829,1.67
1764751177.788034,1.67
1764751177.793084,1.63
1764751177.799127,1.63
1764751177.805074,1.56
1764751177.811286,1.52
1764751177.817418,1.54
1764751177.82391,1.42
1764751177.83003,1.41
1764751177.8362298,1.45
1764751177.8426182,1.37
1764751177.84891,1.43
1764751177.8550222,1.42
1764751177.861328,1.38
1764751177.867438,1.45
1764751177.8737369,1.4
1764751177.8800142,1.42
1764751177.886197,1.46
1764751177.892504,1.4
1764751177.898758,1.46
1764751177.905088,1.45
1764751177.911371,1.43
1764751177.917484,1.62
1764751177.923827,1.96
1764751177.929984,2.6
1764751177.936173,2.9
1764751177.9425752,2.56
1764751177.948705,1.75
1764751177.954939,1.0
1764751177.961349,1.23
1764751177.96744,1.62
1764751177.973669,1.49
1764751177.9800231,1.4
1764751177.986272,1.48
1764751177.992461,1.45
1764751177.9987671,1.47
1764751178.005085,1.45
1764751178.011462,1.45
1764751178.017421,1.51
1764751178.023653,1.46
1764751178.0301912,1.49
1764751178.036245,1.55
1764751178.042613,1.48
1764751178.0489411,1.51
1764751178.0549319,1.52
1764751178.061506,1.5
1764751178.067779,1.59
1764751178.073892,1.57
1764751178.0801651,1.56
1764751178.086289,1.61
1764751178.092559,1.57
1764751178.0987551,1.63
1764751178.104949,1.64
1764751178.11123,1.61
1764751178.117558,1.68
1764751178.1237462,1.64
1764751178.130141,1.68
1764751178.136214,1.74
1764751178.142424,1.69
1764751178.1490371,1.74
1764751178.154902,1.75
1764751178.162215,1.74
1764751178.16743,1.82
1764751178.173716,1.76
1764751178.1799948,1.77
1764751178.186226,1.83
1764751178.192391,1.76
1764751178.1986601,1.78
1764751178.205112,1.73
1764751178.211324,1.69
1764751178.2173948,1.74
1764751178.223642,1.63
1764751178.2298932,1.6
1764751178.2361758,1.63
1764751178.242435,1.56
1764751178.248718,1.58
1764751178.254914,1.55
1764751178.2617862,1.51
1764751178.267447,1.57
1764751178.273665,1.53
1764751178.280042,1.55
1764751178.2862039,1.59
1764751178.292455,1.54
1764751178.299113,1.55
1764751178.304954,1.55
1764751178.311479,1.53
1764751178.3173969,1.6
1764751178.323699,1.56
1764751178.330245,1.56
1764751178.336249,1.61
1764751178.34239,1.56
1764751178.348583,1.6
1764751178.354899,1.6
1764751178.361589,1.56
1764751178.36736,1.62
1764751178.3735821,1.58
1764751178.37996,1.59
1764751178.386123,1.63
1764751178.392451,1.57
1764751178.398579,1.61
1764751178.404819,1.59
1764751178.411395,1.56
1764751178.417436,1.63
1764751178.423618,1.56
1764751178.4304278,1.58
1764751178.43602,1.62
1764751178.4425979,1.56
1764751178.4487228,1.6
1764751178.454932,1.59
1764751178.461279,1.55
1764751178.46737,1.61
1764751178.47361,1.58
1764751178.480045,1.57
1764751178.4860659,1.59
1764751178.492317,1.56
1764751178.498658,1.61
1764751178.504871,1.59
1764751178.5114791,1.56
1764751178.517266,1.63
1764751178.523614,1.57
1764751178.529898,1.58
1764751178.5361578,1.63
1764751178.5423832,1.57
1764751178.548712,1.61
1764751178.554917,1.6
1764751178.561559,1.56
1764751178.5674272,1.64
1764751178.573617,1.59
1764751178.579937,1.61
1764751178.586171,1.69
1764751178.5924218,1.68
1764751178.5997498,1.72
1764751178.604908,1.73
1764751178.6124501,1.71
1764751178.6173701,1.69
1764751178.62358,1.63
1764751178.63022,1.66
1764751178.636019,1.62
1764751178.6422982,1.52
1764751178.648544,1.58
1764751178.6551418,1.59
1764751178.661477,1.52
1764751178.667295,1.58
1764751178.673604,1.56
1764751178.679942,1.55
1764751178.686024,1.59
1764751178.6923158,1.54
1764751178.698625,1.58
1764751178.705011,1.59
1764751178.711172,1.54
1764751178.717401,1.6
1764751178.7235541,1.55
1764751178.7299352,1.62
1764751178.736039,1.85
1764751178.7423308,2.26
1764751178.7485702,2.92
1764751178.7548742,2.99
1764751178.761636,2.49
1764751178.767332,1.59
1764751178.773526,1.15
1764751178.779933,1.49
1764751178.7861462,1.66
1764751178.792316,1.52
1764751178.798527,1.53
1764751178.804875,1.55
1764751178.811458,1.52
1764751178.81736,1.56
1764751178.8235252,1.52
1764751178.830007,1.52
1764751178.8360598,1.57
1764751178.8423429,1.52
1764751178.848536,1.57
1764751178.854919,1.57
1764751178.861708,1.53
1764751178.8673909,1.6
1764751178.873564,1.56
1764751178.88123,1.55
1764751178.886019,1.6
1764751178.892384,1.56
1764751178.898808,1.6
1764751178.905053,1.61
1764751178.911217,1.58
1764751178.917548,1.64
1764751178.923519,1.61
1764751178.929955,1.62
1764751178.936037,1.67
1764751178.942338,1.64
1764751178.948653,1.7
1764751178.954817,1.7
1764751178.961653,1.67
1764751178.967267,1.76
1764751178.9735339,1.74
1764751178.980028,1.73
1764751178.9860108,1.75
1764751178.992343,1.71
1764751178.998523,1.78
1764751179.004885,1.77
1764751179.0340421,1.71
1764751179.034247,1.75
1764751179.034379,1.7
1764751179.0345101,1.66
1764751179.082402,1.67
1764751179.085807,1.59
1764751179.086814,1.6
1764751179.086934,1.58
1764751179.087065,1.52
1764751179.087161,1.57
1764751179.0873861,1.55
1764751179.0874481,1.65
1764751179.0875251,1.73
1764751179.092278,1.67
1764751179.101513,1.68
1764751179.104752,1.69
1764751179.112552,1.65
1764751179.117284,1.71
1764751179.123722,1.69
1764751179.129722,1.66
1764751179.136021,1.71
1764751179.1422029,1.66
1764751179.148534,1.68
1764751179.154807,1.69
1764751179.161443,1.67
1764751179.167229,1.71
1764751179.173474,1.67
1764751179.179886,1.66
1764751179.1860008,1.69
1764751179.19233,1.65
1764751179.198603,1.67
1764751179.2047842,1.66
1764751179.210975,1.62
1764751179.2173069,1.67
1764751179.223525,1.64
1764751179.2297652,1.62
1764751179.236044,1.64
1764751179.242219,1.6
1764751179.248487,1.63
1764751179.254708,1.63
1764751179.26112,1.58
1764751179.267273,1.62
1764751179.273448,1.59
1764751179.2797508,1.6
1764751179.285996,1.62
1764751179.2923,1.57
1764751179.298412,1.59
1764751179.304669,1.61
1764751179.311056,1.57
1764751179.3172789,1.62
1764751179.32344,1.59
1764751179.3297632,1.58
1764751179.335945,1.62
1764751179.342259,1.57
1764751179.348445,1.6
1764751179.3547049,1.6
1764751179.361057,1.56
1764751179.367372,1.62
1764751179.373447,1.59
1764751179.3798862,1.57
1764751179.386059,1.62
1764751179.392483,1.58
1764751179.398392,1.64
1764751179.404733,1.69
1764751179.411426,1.71
1764751179.417326,1.74
1764751179.423508,1.71
1764751179.429745,1.71
1764751179.4359949,1.69
1764751179.442121,1.62
1764751179.448405,1.65
1764751179.454699,1.59
1764751179.461397,1.51
1764751179.467268,1.56
1764751179.473692,1.54
1764751179.479769,1.52
1764751179.485953,1.56
1764751179.4922419,1.52
1764751179.498435,1.54
1764751179.504666,1.54
1764751179.510937,1.51
1764751179.51719,1.57
1764751179.5233998,1.54
1764751179.5299578,1.54
1764751179.535987,1.58
1764751179.542166,1.52
1764751179.548398,1.63
1764751179.554771,1.86
1764751179.561005,2.36
1764751179.56729,2.96
1764751179.573466,2.88
1764751179.579679,2.35
1764751179.586005,1.42
1764751179.592287,1.12
1764751179.598325,1.55
1764751179.604665,1.66
1764751179.61098,1.5
1764751179.617304,1.52
1764751179.623478,1.53
1764751179.629663,1.52
1764751179.636014,1.54
1764751179.642167,1.51
1764751179.648824,1.55
1764751179.6548429,1.54
1764751179.6610281,1.51
1764751179.667179,1.57
1764751179.6733592,1.53
1764751179.679847,1.52
1764751179.6858938,1.58
1764751179.692085,1.53
1764751179.6983528,1.56
1764751179.704691,1.58
1764751179.711072,1.54
1764751179.717082,1.6
1764751179.723388,1.58
1764751179.729719,1.57
1764751179.7359948,1.63
1764751179.742471,1.6
1764751179.748416,1.63
1764751179.754667,1.65
1764751179.760986,1.63
1764751179.76733,1.7
1764751179.773448,1.68
1764751179.779645,1.68
1764751179.7858949,1.75
1764751179.792099,1.71
1764751179.7983549,1.73
1764751179.8047512,1.74
1764751179.810961,1.72
1764751179.817173,1.76
1764751179.823466,1.71
1764751179.8298,1.7
1764751179.83584,1.73
1764751179.842298,1.64
1764751179.8483782,1.63
1764751179.85471,1.62
1764751179.860903,1.55
1764751179.867189,1.55
1764751179.873433,1.51
1764751179.879613,1.49
1764751179.885907,1.52
1764751179.8922749,1.47
1764751179.898324,1.48
1764751179.9046211,1.49
1764751179.9108648,1.44
1764751179.91727,1.5
1764751179.923574,1.48
1764751179.929676,1.45
1764751179.9359019,1.51
1764751179.942252,1.47
1764751179.948351,1.5
1764751179.9547331,1.52
1764751179.961088,1.49
1764751179.9671009,1.55
1764751179.973412,1.52
1764751179.9797251,1.5
1764751179.985898,1.54
1764751179.992198,1.51
1764751179.998276,1.53
1764751180.004552,1.55
1764751180.011113,1.51
1764751180.017138,1.55
1764751180.023367,1.52
1764751180.029595,1.51
1764751180.035755,1.56
1764751180.042115,1.52
1764751180.0482821,1.54
1764751180.054643,1.54
1764751180.061104,1.5
1764751180.0671349,1.54
1764751180.0733252,1.52
1764751180.079701,1.5
1764751180.085793,1.55
1764751180.0921228,1.52
1764751180.0983,1.53
1764751180.1046,1.54
1764751180.1109152,1.5
1764751180.11708,1.54
1764751180.123334,1.52
1764751180.129565,1.51
1764751180.135811,1.56
1764751180.142247,1.51
1764751180.148318,1.52
1764751180.154641,1.54
1764751180.1609879,1.51
1764751180.167119,1.56
1764751180.173363,1.54
1764751180.179778,1.52
1764751180.185824,1.57
1764751180.1920419,1.52
1764751180.1983008,1.54
1764751180.20453,1.56
1764751180.210892,1.52
1764751180.217165,1.56
1764751180.22344,1.54
1764751180.229579,1.53
1764751180.235886,1.59
1764751180.2422469,1.53
1764751180.24831,1.55
1764751180.254551,1.58
1764751180.260879,1.54
1764751180.2671418,1.59
1764751180.273473,1.59
1764751180.279656,1.62
1764751180.2858539,1.72
1764751180.292598,1.64
1764751180.298632,1.67
1764751180.304527,1.73
1764751180.31073,1.62
1764751180.316959,1.63
1764751180.323322,1.63
1764751180.329691,1.58
1764751180.335843,1.56
1764751180.3419929,1.5
1764751180.348352,1.55
1764751180.35465,1.56
1764751180.361011,1.51
1764751180.367041,1.55
1764751180.373197,1.54
1764751180.379476,1.53
1764751180.385828,1.58
1764751180.392076,1.54
1764751180.398197,1.55
1764751180.4045749,1.58
1764751180.4111412,1.54
1764751180.417035,1.57
1764751180.4232671,1.59
1764751180.429555,1.72
1764751180.435982,2.18
1764751180.443236,2.77
1764751180.4484658,2.95
1764751180.454583,2.66
1764751180.4611058,1.72
1764751180.467131,1.09
1764751180.47329,1.41
1764751180.479537,1.68
1764751180.4859362,1.63
1764751180.492535,1.5
1764751180.4983768,1.55
1764751180.504458,1.6
1764751180.510954,1.52
1764751180.517007,1.55
1764751180.523223,1.56
1764751180.52953,1.54
1764751180.535975,1.6
1764751180.542232,1.55
1764751180.548379,1.57
1764751180.554574,1.6
1764751180.5608408,1.55
1764751180.5669749,1.6
1764751180.58588,1.61
1764751180.5869539,1.58
1764751180.587075,1.63
1764751180.6014972,1.59
1764751180.601553,1.62
1764751180.606645,1.65
1764751180.617826,1.61
1764751180.618046,1.67
1764751180.626403,1.66
1764751180.629507,1.67
1764751180.635712,1.73
1764751180.643172,1.68
1764751180.6481931,1.72
1764751180.654464,1.77
1764751180.660817,1.73
1764751180.666991,1.76
1764751180.6732512,1.76
1764751180.6795478,1.76
1764751180.6856918,1.81
1764751180.6919382,1.78
1764751180.698287,1.79
1764751180.704352,1.78
1764751180.710659,1.72
1764751180.7169049,1.76
1764751180.723212,1.71
1764751180.729565,1.66
1764751180.735669,1.67
1764751180.741993,1.57
1764751180.748194,1.59
1764751180.754435,1.58
1764751180.7608,1.5
1764751180.767009,1.54
1764751180.7733362,1.53
1764751180.7794821,1.52
1764751180.785692,1.54
1764751180.79197,1.47
1764751180.798223,1.48
1764751180.8044071,1.49
1764751180.810831,1.44
1764751180.81693,1.5
1764751180.8233001,1.48
1764751180.8297322,1.45
1764751180.835652,1.52
1764751180.842012,1.45
1764751180.848159,1.48
1764751180.854416,1.5
1764751180.8608909,1.45
1764751180.8668969,1.51
1764751180.8731258,1.49
1764751180.879523,1.47
1764751180.885691,1.52
1764751180.8920588,1.45
1764751180.8982022,1.5
1764751180.904434,1.51
1764751180.91082,1.45
1764751180.916894,1.5
1764751180.923109,1.49
1764751180.929437,1.46
1764751180.935606,1.52
1764751180.9419892,1.47
1764751180.9481878,1.49
1764751180.9544451,1.51
1764751180.960754,1.47
1764751180.966974,1.52
1764751180.973123,1.49
1764751180.979477,1.48
1764751180.9856791,1.52
1764751180.992013,1.47
1764751180.998198,1.51
1764751181.004374,1.54
1764751181.0110772,1.48
1764751181.016958,1.51
1764751181.023107,1.49
1764751181.029408,1.48
1764751181.0357592,1.53
1764751181.042083,1.46
1764751181.048167,1.48
1764751181.054406,1.5
1764751181.060628,1.43
1764751181.066937,1.51
1764751181.0730429,1.48
1764751181.079328,1.46
1764751181.0855649,1.52
1764751181.091875,1.46
1764751181.098155,1.5
1764751181.104356,1.51
1764751181.1106188,1.46
1764751181.116852,1.52
1764751181.1230562,1.5
1764751181.129309,1.51
1764751181.13566,1.58
1764751181.14212,1.55
1764751181.148198,1.62
1764751181.154376,1.63
1764751181.160702,1.58
1764751181.1668658,1.67
1764751181.173038,1.58
1764751181.179368,1.54
1764751181.185604,1.63
1764751181.19193,1.51
1764751181.198155,1.48
1764751181.204246,1.51
1764751181.210571,1.48
1764751181.216892,1.54
1764751181.223089,1.51
1764751181.2293398,1.49
1764751181.235565,1.56
1764751181.241899,1.51
1764751181.248202,1.54
1764751181.25439,1.56
1764751181.260916,1.51
1764751181.2668931,1.58
1764751181.273152,1.55
1764751181.279567,1.52
1764751181.285716,1.65
1764751181.2919831,1.75
1764751181.2981162,2.21
1764751181.3043342,2.87
1764751181.310703,2.93
1764751181.316888,2.59
1764751181.323034,1.66
1764751181.329399,1.12
1764751181.335637,1.5
1764751181.3419259,1.62
1764751181.3481421,1.58
1764751181.354385,1.56
1764751181.36066,1.52
1764751181.3670342,1.59
1764751181.3730729,1.57
1764751181.3794801,1.54
1764751181.385642,1.6
1764751181.392907,1.57
1764751181.398117,1.6
1764751181.404258,1.62
1764751181.4107609,1.59
1764751181.416836,1.66
1764751181.42303,1.65
1764751181.4293492,1.62
1764751181.435633,1.68
1764751181.441893,1.65
1764751181.448023,1.68
1764751181.45428,1.69
1764751181.460587,1.65
1764751181.466861,1.73
1764751181.473013,1.73
1764751181.479441,1.7
1764751181.485586,1.75
1764751181.4919932,1.72
1764751181.4981298,1.76
1764751181.5043461,1.8
1764751181.510777,1.75
1764751181.516899,1.82
1764751181.523146,1.83
1764751181.529433,1.81
1764751181.535508,1.87
1764751181.541887,1.83
1764751181.5482008,1.85
1764751181.554281,1.88
1764751181.560651,1.82
1764751181.5668118,1.87
1764751181.572989,1.84
1764751181.5792692,1.78
1764751181.585527,1.8
1764751181.591905,1.72
1764751181.5980449,1.7
1764751181.604278,1.7
1764751181.610709,1.61
1764751181.616841,1.64
1764751181.6229918,1.62
1764751181.6294138,1.58
1764751181.6357498,1.63
1764751181.641901,1.56
1764751181.648118,1.57
1764751181.65429,1.62
1764751181.661012,1.56
1764751181.66684,1.6
1764751181.67315,1.6
1764751181.6793,1.58
1764751181.685571,1.62
1764751181.692348,1.58
1764751181.6980832,1.61
1764751181.7041779,1.64
1764751181.7106712,1.59
1764751181.716767,1.65
1764751181.722985,1.63
1764751181.729245,1.6
1764751181.735544,1.65
1764751181.741838,1.61
1764751181.748019,1.62
1764751181.754221,1.65
1764751181.760554,1.59
1764751181.766747,1.65
1764751181.773004,1.63
1764751181.779417,1.59
1764751181.785886,1.65
1764751181.792049,1.59
1764751181.797997,1.68
1764751181.804258,1.83
1764751181.811197,1.75
1764751181.816771,1.78
1764751181.8229902,1.76
1764751181.829313,1.73
1764751181.835579,1.78
1764751181.8419049,1.74
1764751181.847988,1.74
1764751181.854233,1.76
1764751181.8605928,1.71
1764751181.866763,1.74
1764751181.8729758,1.75
1764751181.879232,1.71
1764751181.885493,1.74
1764751181.8918788,1.7
1764751181.897951,1.71
1764751181.90419,1.74
1764751181.9105752,1.67
1764751181.9166899,1.72
1764751181.9229949,1.71
1764751181.9292622,1.68
1764751181.9355562,1.73
1764751181.94193,1.68
1764751181.9479969,1.67
1764751181.954261,1.71
1764751181.960842,1.67
1764751181.966712,1.7
1764751181.972982,1.7
1764751181.979276,1.65
1764751181.9854531,1.69
1764751181.991958,1.66
1764751181.998179,1.66
1764751182.0042508,1.67
1764751182.01071,1.67
1764751182.016831,1.77
1764751182.02301,1.78
1764751182.029218,1.71
1764751182.035446,1.78
1764751182.04185,1.75
1764751182.047998,1.66
1764751182.054165,1.65
1764751182.0606248,1.6
1764751182.0668201,1.55
1764751182.0730188,1.49
1764751182.079346,1.45
1764751182.085547,1.43
1764751182.0919092,1.3
1764751182.0979588,1.35
1764751182.104102,1.49
1764751182.1108181,1.52
1764751182.116812,1.22
1764751182.1230452,1.05
1764751182.1292841,1.25
1764751182.135398,1.27
1764751182.141891,1.29
1764751182.148012,1.31
1764751182.1541388,1.29
1764751182.160526,1.42
1764751182.1667762,1.63
1764751182.172964,2.11
1764751182.1791658,2.73
1764751182.185479,2.7
1764751182.19193,2.23
1764751182.1979032,1.3
1764751182.204237,0.91
1764751182.210546,1.37
1764751182.2167192,1.51
1764751182.222968,1.36
1764751182.2291992,1.37
1764751182.235422,1.37
1764751182.241802,1.41
1764751182.247902,1.41
1764751182.254115,1.36
1764751182.265137,1.42
1764751182.2719328,1.41
1764751182.2967,1.42
1764751182.316489,1.47
1764751182.322326,1.41
1764751182.322381,1.44
1764751182.322429,1.47
1764751182.3224761,1.43
1764751182.3225229,1.5
1764751182.322571,1.49
1764751182.341151,1.48
1764751182.341494,1.48
1764751182.3417878,1.46
1764751182.341975,1.53
1764751182.347986,1.58
1764751182.355277,1.54
1764751182.360658,1.61
1764751182.366666,1.58
1764751182.372907,1.56
1764751182.379086,1.65
1764751182.385561,1.6
1764751182.391695,1.63
1764751182.397888,1.66
1764751182.404193,1.62
1764751182.410388,1.71
1764751182.416769,1.7
1764751182.423123,1.67
1764751182.4290829,1.78
1764751182.43537,1.76
1764751182.4417,1.68
1764751182.447985,1.74
1764751182.4540422,1.72
1764751182.4605162,1.59
1764751182.466652,1.52
1764751182.472894,1.59
1764751182.479149,1.56
1764751182.4853692,1.41
1764751182.49183,1.54
1764751182.4978838,1.61
1764751182.5040488,1.36
1764751182.510487,1.34
1764751182.516617,1.42
1764751182.522857,1.44
1764751182.529175,1.49
1764751182.5354218,1.51
1764751182.541787,1.58
1764751182.5478241,1.47
1764751182.554147,1.34
1764751182.560482,1.47
1764751182.566669,1.52
1764751182.573015,1.49
1764751182.57921,1.58
1764751182.5854259,1.47
1764751182.5916328,1.48
1764751182.597912,1.67
1764751182.604039,1.51
1764751182.610477,1.46
1764751182.616627,1.55
1764751182.6228569,1.5
1764751182.6291652,1.49
1764751182.635375,1.49
1764751182.641734,1.49
1764751182.647917,1.5
1764751182.654128,1.47
1764751182.660511,1.55
1764751182.6665752,1.56
1764751182.6728709,1.51
1764751182.679142,1.56
1764751182.6854699,1.52
1764751182.6916869,1.52
1764751182.697788,1.53
1764751182.7042172,1.51
1764751182.7104461,1.59
1764751182.7167518,1.5
1764751182.723039,1.48
1764751182.729138,1.56
1764751182.736578,1.52
1764751182.741678,1.58
1764751182.7478359,1.68
1764751182.754187,1.53
1764751182.7605062,1.56
1764751182.7666078,1.51
1764751182.773268,1.45
1764751182.779116,1.54
1764751182.785325,1.53
1764751182.7915561,1.54
1764751182.797724,1.57
1764751182.8040588,1.55
1764751182.810307,1.62
1764751182.816546,1.61
1764751182.822737,1.66
1764751182.829074,1.71
1764751182.835346,1.73
1764751182.841632,1.61
1764751182.847717,1.4
1764751182.853975,1.49
1764751182.860335,1.75
1764751182.866553,1.67
1764751182.872788,1.58
1764751182.8790798,1.75
1764751182.885334,1.69
1764751182.8916,1.62
1764751182.897779,1.69
1764751182.904018,1.59
1764751182.910325,1.6
1764751182.916606,1.59
1764751182.922843,1.53
1764751182.929088,1.63
1764751182.9353118,1.58
1764751182.9415529,1.55
1764751182.947726,1.61
1764751182.954038,1.55
1764751182.960503,1.56
1764751182.966539,1.63
1764751182.972794,1.59
1764751182.97909,1.59
1764751182.985331,1.57
1764751182.9915361,1.62
1764751182.997757,1.76
1764751183.003941,1.72
1764751183.011571,2.1
1764751183.0166101,2.8
1764751183.022794,3.01
1764751183.029127,2.76
1764751183.035543,1.86
1764751183.041718,1.15
1764751183.04783,1.46
1764751183.054057,1.62
1764751183.060331,1.59
1764751183.066577,1.55
1764751183.0728,1.55
1764751183.0792189,1.6
1764751183.085292,1.56
1764751183.091496,1.59
1764751183.097674,1.61
1764751183.103931,1.56
1764751183.110327,1.56
1764751183.116483,1.59
1764751183.1227021,1.59
1764751183.1291,1.69
1764751183.135537,1.7
1764751183.1414459,1.6
1764751183.1477802,1.6
1764751183.15413,1.59
1764751183.160574,1.64
1764751183.16645,1.69
1764751183.1727638,1.57
1764751183.179111,1.62
1764751183.185257,1.6
1764751183.19153,1.65
1764751183.197675,1.68
1764751183.2039838,1.64
1764751183.210477,1.71
1764751183.2167099,1.74
1764751183.222744,1.71
1764751183.2289548,1.76
1764751183.2352169,1.79
1764751183.2429419,1.78
1764751183.2477498,1.83
1764751183.253998,1.78
1764751183.260275,1.75
1764751183.266486,1.77
1764751183.272844,1.79
1764751183.278986,1.76
1764751183.285203,1.7
1764751183.291682,1.74
1764751183.2976809,1.78
1764751183.3040059,1.7
1764751183.3102689,1.69
1764751183.316531,1.59
1764751183.3230011,1.55
1764751183.329047,1.6
1764751183.335329,1.55
1764751183.34171,1.54
1764751183.347755,1.58
1764751183.354408,1.52
1764751183.360477,1.54
1764751183.366579,1.55
1764751183.372751,1.52
1764751183.379051,1.59
1764751183.385277,1.55
1764751183.391433,1.53
1764751183.3976629,1.59
1764751183.403925,1.56
1764751183.410274,1.59
1764751183.416665,1.59
1764751183.4227772,1.56
1764751183.4292321,1.61
1764751183.435253,1.58
1764751183.441556,1.67
1764751183.4477,1.67
1764751183.45402,1.56
1764751183.4602802,1.58
1764751183.46647,1.53
1764751183.472787,1.53
1764751183.479079,1.63
1764751183.485433,1.57
1764751183.49151,1.53
1764751183.497733,1.6
1764751183.50392,1.57
1764751183.510371,1.64
1764751183.516576,1.6
1764751183.522711,1.52
1764751183.528954,1.58
1764751183.535237,1.6
1764751183.541458,1.59
1764751183.54771,1.64
1764751183.5540748,1.55
1764751183.560148,1.56
1764751183.566449,1.54
1764751183.572887,1.52
1764751183.578903,1.6
1764751183.585234,1.55
1764751183.592076,1.54
1764751183.597783,1.61
1764751183.64606,1.56
1764751183.646315,1.62
1764751183.646712,1.63
1764751183.6468322,1.58
1764751183.646958,1.7
1764751183.647082,1.64
1764751183.647212,1.48
1764751183.668576,1.5
1764751183.6686862,1.54
1764751183.668774,1.59
1764751183.668902,1.58
1764751183.6734238,1.54
1764751183.6788962,1.63
1764751183.6851358,1.59
1764751183.6914618,1.65
1764751183.697686,1.8
1764751183.7039402,1.67
1764751183.7101939,1.65
1764751183.716534,1.76
1764751183.722788,1.68
1764751183.728935,1.58
1764751183.735169,1.6
1764751183.741524,1.59
1764751183.747781,1.57
1764751183.753983,1.51
1764751183.790308,1.56
1764751183.790792,1.56
1764751183.7909381,1.52
1764751183.791067,1.59
1764751183.791199,1.57
1764751183.791479,1.52
1764751183.797641,1.57
1764751183.80401,1.53
1764751183.810268,1.59
1764751183.816601,1.59
1764751183.822659,1.54
1764751183.8298292,1.58
1764751183.835144,1.56
1764751183.8417978,1.7
1764751183.847908,2.15
1764751183.854236,2.76
1764751183.8609269,3.04
1764751183.8664892,2.83
1764751183.872811,1.86
1764751183.8790221,1.06
1764751183.885236,1.36
1764751183.892472,1.65
1764751183.897651,1.56
1764751183.9039261,1.48
1764751183.9101708,1.59
1764751183.9164438,1.54
1764751183.922656,1.44
1764751183.928821,1.58
1764751183.935211,1.59
1764751183.941535,1.52
1764751183.9476092,1.57
1764751183.953759,1.55
1764751183.960093,1.57
1764751183.966409,1.54
1764751183.97254,1.49
1764751183.9788291,1.61
1764751183.985161,1.64
1764751183.99186,1.52
1764751183.997558,1.56
1764751184.003834,1.54
1764751184.010147,1.61
1764751184.016268,1.68
1764751184.0226,1.59
1764751184.028883,1.62
1764751184.035125,1.64
1764751184.041441,1.63
1764751184.0476742,1.7
1764751184.0540001,1.65
1764751184.0602949,1.69
1764751184.0663738,1.79
1764751184.072722,1.76
1764751184.078969,1.7
1764751184.085108,1.66
1764751184.0920792,1.7
1764751184.0975978,1.75
1764751184.103749,1.71
1764751184.110145,1.76
1764751184.116981,1.78
1764751184.1236951,1.69
1764751184.129806,1.72
1764751184.1353889,1.7
1764751184.141488,1.67
1764751184.147775,1.66
1764751184.1538491,1.57
1764751184.1605508,1.58
1764751184.166432,1.61
1764751184.172874,1.52
1764751184.178802,1.48
1764751184.185029,1.42
1764751184.191457,1.48
1764751184.197581,1.55
1764751184.203813,1.43
1764751184.2099998,1.52
1764751184.21632,1.58
1764751184.222729,1.47
1764751184.228791,1.52
1764751184.235092,1.53
1764751184.241874,1.51
1764751184.2475488,1.53
1764751184.253773,1.51
1764751184.260061,1.53
1764751184.2663481,1.55
1764751184.273532,1.57
1764751184.279397,1.58
1764751184.2849789,1.49
1764751184.2913768,1.55
1764751184.297546,1.64
1764751184.303781,1.49
1764751184.310024,1.53
1764751184.316231,1.66
1764751184.3225868,1.51
1764751184.328765,1.49
1764751184.335086,1.53
1764751184.341353,1.54
1764751184.3475971,1.58
1764751184.353761,1.53
1764751184.360014,1.53
1764751184.366268,1.59
1764751184.37261,1.55
1764751184.3787541,1.57
1764751184.3850791,1.59
1764751184.391435,1.48
1764751184.397664,1.55
1764751184.403887,1.58
1764751184.410081,1.56
1764751184.416515,1.6
1764751184.422546,1.53
1764751184.428792,1.56
1764751184.4350772,1.63
1764751184.441451,1.56
1764751184.447478,1.62
1764751184.453853,1.62
1764751184.460045,1.55
1764751184.466354,1.73
1764751184.472629,1.72
1764751184.478792,1.65
1764751184.485004,1.82
1764751184.49136,1.74
1764751184.497608,1.75
1764751184.504042,1.85
1764751184.510134,1.72
1764751184.516557,1.82
1764751184.522582,1.81
1764751184.528841,1.75
1764751184.535084,1.9
1764751184.5422552,1.82
1764751184.547462,1.81
1764751184.553717,1.92
1764751184.560023,1.8
1764751184.5662808,1.82
1764751184.572534,1.79
1764751184.578725,1.71
1764751184.5850189,1.78
1764751184.59153,1.67
1764751184.597464,1.68
1764751184.60385,1.71
1764751184.609985,1.57
1764751184.616273,1.66
1764751184.622508,1.66
1764751184.628771,1.6
1764751184.63499,1.74
1764751184.641653,1.67
1764751184.647459,1.72
1764751184.653728,1.82
1764751184.65995,1.73
1764751184.666246,1.82
1764751184.6725252,1.81
1764751184.678735,1.75
1764751184.685181,2.0
1764751184.691566,2.31
1764751184.6974661,2.95
1764751184.7037492,3.15
1764751184.7102048,3.09
1764751184.732784,2.38
1764751184.771886,1.43
1764751184.772127,1.56
1764751184.77514,1.99
1764751184.775306,1.84
1764751184.7756102,1.73
1764751184.775797,1.85
1764751184.775987,1.79
1764751184.7762291,1.79
1764751184.776381,1.78
1764751184.794432,1.73
1764751184.7947688,1.8
1764751184.7948549,1.75
1764751184.804746,1.74
1764751184.804855,1.8
1764751184.81027,1.7
1764751184.8166158,1.73
1764751184.822507,1.71
1764751184.8286788,1.61
1764751184.83495,1.64
1764751184.841318,1.58
1764751184.847428,1.6
1764751184.853744,1.68
1764751184.859992,1.56
1764751184.866233,1.61
1764751184.87261,1.61
1764751184.878735,1.53
1764751184.88513,1.65
1764751184.891306,1.59
1764751184.89753,1.6
1764751184.9036548,1.7
1764751184.909815,1.6
1764751184.916081,1.66
1764751184.922451,1.68
1764751184.9286542,1.63
1764751184.935143,1.75
1764751184.941514,1.69
1764751184.947426,1.66
1764751184.9536908,1.74
1764751184.959931,1.66
1764751184.966259,1.7
1764751184.972429,1.68
1764751184.9786959,1.6
1764751184.984937,1.65
1764751184.992125,1.55
1764751184.997437,1.52
1764751185.003785,1.57
1764751185.00997,1.46
1764751185.0165582,1.52
1764751185.023476,1.53
1764751185.0288188,1.44
1764751185.034956,1.55
1764751185.0434518,1.5
1764751185.0474932,1.48
1764751185.054045,1.55
1764751185.059999,1.46
1764751185.066192,1.5
1764751185.0729249,1.52
1764751185.078793,1.46
1764751185.08498,1.54
1764751185.091298,1.52
1764751185.097515,1.5
1764751185.103694,1.55
1764751185.1099362,1.48
1764751185.1162298,1.55
1764751185.1226828,1.55
1764751185.12867,1.48
1764751185.135009,1.59
1764751185.1411772,1.57
1764751185.1475258,1.55
1764751185.153731,1.58
1764751185.160038,1.51
1764751185.166178,1.54
1764751185.1724281,1.55
1764751185.178663,1.49
1764751185.1849442,1.56
1764751185.1912692,1.52
1764751185.1974888,1.5
1764751185.20374,1.56
1764751185.20992,1.45
1764751185.216106,1.5
1764751185.222591,1.53
1764751185.2285829,1.46
1764751185.234841,1.53
1764751185.241483,1.5
1764751185.2474701,1.48
1764751185.253807,1.53
1764751185.2599502,1.45
1764751185.266179,1.5
1764751185.272429,1.52
1764751185.2786481,1.45
1764751185.284912,1.53
1764751185.2914078,1.51
1764751185.297448,1.48
1764751185.30361,1.52
1764751185.3099048,1.45
1764751185.316169,1.48
1764751185.322541,1.52
1764751185.328615,1.45
1764751185.334943,1.52
1764751185.3414998,1.49
1764751185.3474061,1.47
1764751185.353636,1.53
1764751185.360173,1.45
1764751185.366088,1.5
1764751185.3727071,1.52
1764751185.378645,1.46
1764751185.384908,1.54
1764751185.391306,1.49
1764751185.397386,1.49
1764751185.40366,1.64
1764751185.409899,1.59
1764751185.416063,1.61
1764751185.422514,1.59
1764751185.428734,1.51
1764751185.4349492,1.58
1764751185.4413881,1.46
1764751185.447359,1.47
1764751185.453592,1.53
1764751185.4598248,1.36
1764751185.466027,1.38
1764751185.472497,1.39
1764751185.478581,1.33
1764751185.484808,1.4
1764751185.491157,1.29
1764751185.497401,1.3
1764751185.5037062,1.39
1764751185.5098891,1.27
1764751185.51613,1.35
1764751185.522527,1.36
1764751185.5288079,1.3
1764751185.534977,1.44
1764751185.5411358,1.32
1764751185.5473468,1.31
1764751185.5536242,1.49
1764751185.5598211,1.63
1764751185.5660968,2.29
1764751185.572481,2.79
1764751185.578624,2.58
1764751185.5848918,2.12
1764751185.591053,1.08
1764751185.597312,0.93
1764751185.603518,1.49
1764751185.609864,1.44
1764751185.616096,1.38
1764751185.622441,1.37
1764751185.628653,1.33
1764751185.634872,1.47
1764751185.641218,1.35
1764751185.647357,1.36
1764751185.65359,1.49
1764751185.659852,1.37
1764751185.666126,1.43
1764751185.672433,1.46
1764751185.6785522,1.38
1764751185.68493,1.49
1764751185.691021,1.43
1764751185.697375,1.43
1764751185.7035892,1.52
1764751185.709781,1.43
1764751185.71604,1.51
1764751185.722501,1.52
1764751185.728575,1.43
1764751185.7347488,1.56
1764751185.741097,1.52
1764751185.747361,1.52
1764751185.7536058,1.61
1764751185.759893,1.52
1764751185.766048,1.61
1764751185.772724,1.63
1764751185.778739,1.56
1764751185.7847402,1.7
1764751185.791138,1.64
1764751185.797386,1.64
1764751185.8034801,1.74
1764751185.809878,1.64
1764751185.816051,1.72
1764751185.822428,1.74
1764751185.828911,1.64
1764751185.8348942,1.74
1764751185.8411431,1.67
1764751185.847286,1.62
1764751185.853531,1.67
1764751185.85978,1.52
1764751185.866014,1.58
1764751185.87247,1.55
1764751185.878709,1.46
1764751185.884872,1.56
1764751185.89132,1.47
1764751185.897305,1.45
1764751185.903585,1.52
1764751185.909857,1.42
1764751185.916199,1.48
1764751185.922755,1.51
1764751185.928523,1.43
1764751185.935082,1.53
1764751185.941201,1.48
1764751185.9472919,1.46
1764751185.953553,1.54
1764751185.959796,1.48
1764751185.966101,1.53
1764751185.9723048,1.51
1764751185.978515,1.46
1764751185.984813,1.58
1764751185.9910982,1.52
1764751185.997602,1.49
1764751186.003634,1.58
1764751186.009872,1.49
1764751186.015954,1.56
1764751186.023437,1.57
1764751186.028429,1.49
1764751186.034843,1.59
1764751186.041597,1.52
1764751186.047252,1.51
1764751186.056869,1.59
1764751186.0617201,1.49
1764751186.0666099,1.56
1764751186.101501,1.57
1764751186.101644,1.48
1764751186.101769,1.59
1764751186.1018932,1.52
1764751186.102049,1.51
1764751186.123586,1.6
1764751186.123803,1.49
1764751186.125041,1.55
1764751186.125669,1.57
1764751186.130368,1.49
1764751186.134689,1.59
1764751186.140979,1.52
1764751186.147532,1.52
1764751186.15347,1.61
1764751186.159751,1.48
1764751186.165977,1.55
1764751186.172199,1.6
1764751186.178443,1.52
1764751186.1847548,1.6
1764751186.191057,1.52
1764751186.1972349,1.52
1764751186.203469,1.62
1764751186.209742,1.5
1764751186.216032,1.57
1764751186.222244,1.58
1764751186.228571,1.51
1764751186.234727,1.6
1764751186.2410188,1.52
1764751186.2472892,1.53
1764751186.2534862,1.62
1764751186.259968,1.51
1764751186.265957,1.62
1764751186.272321,1.68
1764751186.2784,1.58
1764751186.284745,1.67
1764751186.290988,1.64
1764751186.29728,1.65
1764751186.3034391,1.67
1764751186.309748,1.54
1764751186.315924,1.63
1764751186.322459,1.6
1764751186.328508,1.47
1764751186.3346791,1.6
1764751186.340947,1.54
1764751186.3472362,1.52
1764751186.35346,1.6
1764751186.359722,1.5
1764751186.365956,1.58
1764751186.372551,1.59
1764751186.378446,1.49
1764751186.384659,1.62
1764751186.3909838,1.59
1764751186.397262,1.55
1764751186.403445,1.63
1764751186.410026,1.53
1764751186.415869,1.63
1764751186.422431,1.76
1764751186.428403,2.03
1764751186.434726,3.0
1764751186.440904,3.16
1764751186.4471638,3.16
1764751186.4534342,3.07
1764751186.459816,1.94
1764751186.466065,1.59
1764751186.47219,2.15
1764751186.478415,2.22
1764751186.484731,2.05
1764751186.490977,2.0
1764751186.497235,2.0
1764751186.503385,2.04
1764751186.509711,1.96
1764751186.515876,1.95
1764751186.522191,2.0
1764751186.5283918,1.92
1764751186.534753,1.94
1764751186.540892,1.94
1764751186.547105,1.9
1764751186.553356,1.95
1764751186.559707,1.9
1764751186.565933,1.89
1764751186.572275,1.91
1764751186.578444,1.86
1764751186.584625,1.91
1764751186.591199,1.88
1764751186.597169,1.85
1764751186.60353,1.92
1764751186.609667,1.88
1764751186.615951,1.86
1764751186.622493,1.92
1764751186.628433,1.87
1764751186.634627,1.9
1764751186.64105,1.92
1764751186.647177,1.91
1764751186.653545,1.96
1764751186.659703,1.9
1764751186.6658409,1.92
1764751186.672179,1.97
1764751186.6783009,1.9
1764751186.684611,1.94
1764751186.691069,1.95
1764751186.6971362,1.89
1764751186.703422,1.93
1764751186.709707,1.83
1764751186.715853,1.79
1764751186.72226,1.81
1764751186.7283149,1.72
1764751186.734605,1.72
1764751186.741009,1.68
1764751186.747197,1.61
1764751186.7534819,1.64
1764751186.759678,1.57
1764751186.765903,1.57
1764751186.772276,1.61
1764751186.778312,1.55
1764751186.784775,1.59
1764751186.791069,1.57
1764751186.797154,1.52
1764751186.8033721,1.6
1764751186.809807,1.55
1764751186.8159401,1.53
1764751186.822214,1.59
1764751186.828415,1.52
1764751186.834744,1.58
1764751186.840894,1.57
1764751186.8471522,1.52
1764751186.853385,1.59
1764751186.8595421,1.54
1764751186.865838,1.55
1764751186.872125,1.6
1764751186.8783429,1.54
1764751186.8846211,1.58
1764751186.890841,1.6
1764751186.897148,1.56
1764751186.9033222,1.62
1764751186.909674,1.58
1764751186.915841,1.57
1764751186.9221718,1.61
1764751186.92831,1.56
1764751186.934687,1.57
1764751186.940925,1.59
1764751186.947048,1.55
1764751186.953452,1.59
1764751186.959736,1.54
1764751186.965826,1.54
1764751186.972397,1.59
1764751186.978383,1.53
1764751186.984735,1.56
1764751186.991012,1.56
1764751186.997056,1.52
1764751187.0035279,1.58
1764751187.0097349,1.53
1764751187.0158699,1.54
1764751187.022193,1.57
1764751187.028329,1.52
1764751187.0346591,1.55
1764751187.040952,1.56
1764751187.047115,1.51
1764751187.05339,1.54
1764751187.0597901,1.52
1764751187.065822,1.51
1764751187.0721128,1.55
1764751187.078305,1.5
1764751187.084536,1.53
1764751187.090801,1.53
1764751187.097037,1.49
1764751187.1034591,1.56
1764751187.109716,1.52
1764751187.115794,1.5
1764751187.122113,1.55
1764751187.1282802,1.51
1764751187.134604,1.55
1764751187.140935,1.61
1764751187.147143,1.66
1764751187.153253,1.76
1764751187.1595461,1.72
1764751187.1658041,1.69
1764751187.1722088,1.77
1764751187.178321,1.71
1764751187.184611,1.68
1764751187.190817,1.72
1764751187.197052,1.68
1764751187.2033322,1.62
1764751187.209503,1.58
1764751187.215822,1.59
1764751187.2220101,1.64
1764751187.22843,1.57
1764751187.234544,1.58
1764751187.2407959,1.61
1764751187.247135,1.56
1764751187.253344,1.61
1764751187.2595189,1.6
1764751187.2657652,1.59
1764751187.272189,1.64
1764751187.278213,1.6
1764751187.28462,1.62
1764751187.2907672,1.62
1764751187.297066,1.66
1764751187.303158,1.96
1764751187.309555,2.49
1764751187.315767,2.99
1764751187.322048,2.91
1764751187.3282309,2.34
1764751187.3344672,1.39
1764751187.340735,1.22
1764751187.3470469,1.59
1764751187.3532858,1.74
1764751187.3594408,1.58
1764751187.365692,1.53
1764751187.3722692,1.61
1764751187.378209,1.57
1764751187.3845,1.58
1764751187.390881,1.56
1764751187.397008,1.53
1764751187.403193,1.6
1764751187.409631,1.58
1764751187.415783,1.56
1764751187.422457,1.6
1764751187.428312,1.56
1764751187.434474,1.59
1764751187.440726,1.59
1764751187.4469981,1.54
1764751187.4532878,1.6
1764751187.459581,1.59
1764751187.4659572,1.57
1764751187.4730592,1.62
1764751187.478313,1.57
1764751187.48457,1.6
1764751187.490942,1.63
1764751187.496997,1.59
1764751187.5035672,1.65
1764751187.509506,1.65
1764751187.5157278,1.64
1764751187.522162,1.7
1764751187.5282161,1.69
1764751187.5349681,1.7
1764751187.540768,1.74
1764751187.5470111,1.71
1764751187.553371,1.75
1764751187.559513,1.74
1764751187.565829,1.72
1764751187.572466,1.75
1764751187.5783098,1.7
1764751187.615029,1.7
1764751187.61517,1.67
1764751187.615295,1.59
1764751187.6154182,1.6
1764751187.615541,1.53
1764751187.615665,1.48
1764751187.6621609,1.5
1764751187.662245,1.43
1764751187.662318,1.42
1764751187.662407,1.4
1764751187.662482,1.35
1764751187.663393,1.35
1764751187.6634738,1.3
1764751187.665785,1.29
1764751187.6724632,1.32
1764751187.6781912,1.25
1764751187.684607,1.27
1764751187.6910348,1.28
1764751187.6971772,1.21
1764751187.7034628,1.29
1764751187.7094998,1.26
1764751187.715866,1.23
1764751187.7220118,1.29
1764751187.7281952,1.19
1764751187.734429,1.23
1764751187.740716,1.23
1764751187.746964,1.17
1764751187.754144,1.23
1764751187.7595751,1.12
1764751187.765676,1.15
1764751187.7721531,1.21
1764751187.778134,1.1
1764751187.78441,1.15
1764751187.790776,1.13
1764751187.797055,1.08
1764751187.803081,1.19
1764751187.8092868,1.09
1764751187.815616,1.1
1764751187.821904,1.18
1764751187.8281732,1.07
1764751187.834392,1.17
1764751187.840618,1.17
1764751187.846876,1.09
1764751187.853239,1.19
1764751187.860197,1.1
1764751187.865605,1.14
1764751187.872533,1.21
1764751187.878088,1.09
1764751187.884366,1.2
1764751187.890898,1.19
1764751187.89686,1.13
1764751187.9031959,1.27
1764751187.909506,1.17
1764751187.9157481,1.18
1764751187.92188,1.29
1764751187.928034,1.18
1764751187.934413,1.26
1764751187.940592,1.25
1764751187.94688,1.2
1764751187.953192,1.33
1764751187.959423,1.24
1764751187.965716,1.26
1764751187.972278,1.34
1764751187.9781508,1.22
1764751187.984451,1.34
1764751187.990835,1.35
1764751187.9968681,1.29
1764751188.003245,1.41
1764751188.0095098,1.33
1764751188.015711,1.39
1764751188.022175,1.51
1764751188.02807,1.42
1764751188.034442,1.49
1764751188.0408242,1.52
1764751188.046943,1.48
1764751188.0532212,1.52
1764751188.0593731,1.44
1764751188.0657852,1.48
1764751188.071991,1.52
1764751188.07818,1.34
1764751188.084418,1.43
1764751188.0909529,1.43
1764751188.0972428,1.37
1764751188.103431,1.49
1764751188.109356,1.42
1764751188.115548,1.43
1764751188.122027,1.5
1764751188.1281831,1.38
1764751188.134284,1.48
1764751188.140531,1.54
1764751188.146749,1.63
1764751188.153067,1.76
1764751188.1592262,1.63
1764751188.165662,1.65
1764751188.1717918,1.86
1764751188.178015,2.09
1764751188.1843772,2.77
1764751188.190529,3.11
1764751188.19678,2.75
1764751188.2030451,2.07
1764751188.209344,1.22
1764751188.2154932,1.36
1764751188.221867,1.76
1764751188.228121,1.62
1764751188.234304,1.62
1764751188.240567,1.63
1764751188.2468102,1.57
1764751188.253081,1.66
1764751188.259219,1.58
1764751188.265579,1.59
1764751188.2719638,1.65
1764751188.2781,1.52
1764751188.284404,1.55
1764751188.290793,1.53
1764751188.296915,1.48
1764751188.3031309,1.58
1764751188.309364,1.52
1764751188.3156412,1.51
1764751188.3224251,1.59
1764751188.328256,1.49
1764751188.334367,1.57
1764751188.34063,1.59
1764751188.3468559,1.52
1764751188.353248,1.64
1764751188.3592389,1.57
1764751188.365557,1.59
1764751188.372066,1.68
1764751188.37814,1.58
1764751188.384282,1.69
1764751188.39064,1.72
1764751188.396888,1.63
1764751188.403137,1.77
1764751188.409332,1.73
1764751188.4156601,1.71
1764751188.421993,1.79
1764751188.4281678,1.7
1764751188.4343119,1.79
1764751188.4406452,1.8
1764751188.446819,1.71
1764751188.453053,1.81
1764751188.4594,1.71
1764751188.465753,1.69
1764751188.471798,1.74
1764751188.478084,1.59
1764751188.484384,1.64
1764751188.490933,1.62
1764751188.497443,1.51
1764751188.503662,1.61
1764751188.5093,1.54
1764751188.5155652,1.53
1764751188.521791,1.6
1764751188.5279958,1.5
1764751188.5342588,1.56
1764751188.540522,1.59
1764751188.546865,1.51
1764751188.553039,1.6
1764751188.559139,1.54
1764751188.5655239,1.56
1764751188.571817,1.64
1764751188.577999,1.52
1764751188.584194,1.61
1764751188.590505,1.62
1764751188.596791,1.54
1764751188.603358,1.66
1764751188.6092658,1.58
1764751188.616368,1.57
1764751188.621835,1.67
1764751188.627948,1.58
1764751188.634179,1.63
1764751188.640619,1.65
1764751188.646784,1.54
1764751188.6530979,1.65
1764751188.659379,1.59
1764751188.665604,1.57
1764751188.67178,1.64
1764751188.6780128,1.53
1764751188.684329,1.61
1764751188.691176,1.62
1764751188.6967459,1.53
1764751188.703312,1.62
1764751188.7093701,1.54
1764751188.71557,1.54
1764751188.721945,1.59
1764751188.728277,1.48
1764751188.7343519,1.57
1764751188.74049,1.56
1764751188.746798,1.5
1764751188.753079,1.61
1764751188.7592351,1.52
1764751188.7656078,1.51
1764751188.7719371,1.6
1764751188.777931,1.5
1764751188.784327,1.58
1764751188.790495,1.57
1764751188.7966971,1.52
1764751188.803143,1.63
1764751188.809336,1.54
1764751188.815671,1.57
1764751188.821883,1.66
1764751188.827932,1.53
1764751188.834177,1.64
1764751188.8404438,1.64
1764751188.846715,1.59
1764751188.853157,1.77
1764751188.8592849,1.72
1764751188.8655841,1.72
1764751188.8719091,1.85
1764751188.877939,1.76
1764751188.88418,1.78
1764751188.890578,1.77
1764751188.896765,1.72
1764751188.903371,1.8
1764751188.909317,1.7
1764751188.91561,1.68
1764751188.921855,1.8
1764751188.928098,1.7
1764751188.934268,1.78
1764751188.95009,1.8
1764751188.96052,1.73
1764751188.973778,1.85
1764751188.974289,1.81
1764751188.974429,1.81
1764751188.974566,1.91
1764751189.013674,1.82
1764751189.017699,1.88
1764751189.017803,1.89
1764751189.0178618,1.9
1764751189.0179179,2.16
1764751189.018003,2.53
1764751189.018062,3.14
1764751189.024386,3.16
1764751189.027929,3.12
1764751189.03422,2.34
1764751189.043349,1.4
1764751189.047721,1.71
1764751189.052961,2.2
1764751189.059152,2.02
1764751189.0653892,1.84
1764751189.0722408,1.98
1764751189.078031,1.93
1764751189.084249,1.94
1764751189.090407,1.97
1764751189.096609,1.9
1764751189.10303,1.98
1764751189.109113,1.93
1764751189.1154401,1.9
1764751189.121771,1.99
1764751189.1279092,1.91
1764751189.134319,1.95
1764751189.140457,1.97
1764751189.146637,1.87
1764751189.153134,1.95
1764751189.1591191,1.94
1764751189.165368,1.9
1764751189.171701,1.97
1764751189.1779158,1.91
1764751189.184111,1.92
1764751189.190342,1.98
1764751189.196521,1.91
1764751189.202999,1.96
1764751189.209173,1.96
1764751189.215334,1.94
1764751189.2217321,2.03
1764751189.227979,1.96
1764751189.234096,1.98
1764751189.240397,2.03
1764751189.246718,1.95
1764751189.252943,2.02
1764751189.259189,2.0
1764751189.265415,1.96
1764751189.271629,2.02
1764751189.277983,1.95
1764751189.284208,1.94
1764751189.290426,1.93
1764751189.296723,1.81
1764751189.302911,1.86
1764751189.3092768,1.78
1764751189.315338,1.68
1764751189.3216488,1.72
1764751189.327904,1.63
1764751189.334118,1.63
1764751189.340357,1.66
1764751189.3466072,1.57
1764751189.352923,1.62
1764751189.3592331,1.6
1764751189.365358,1.55
1764751189.371722,1.62
1764751189.37788,1.55
1764751189.384035,1.56
1764751189.390304,1.61
1764751189.3965938,1.54
1764751189.402893,1.58
1764751189.4091468,1.57
1764751189.415472,1.56
1764751189.4216409,1.62
1764751189.427847,1.55
1764751189.4340951,1.57
1764751189.440276,1.62
1764751189.446625,1.54
1764751189.453245,1.59
1764751189.459092,1.58
1764751189.4655292,1.55
1764751189.471679,1.62
1764751189.4778502,1.52
1764751189.484164,1.54
1764751189.4907038,1.59
1764751189.496564,1.51
1764751189.5028732,1.57
1764751189.509164,1.54
1764751189.515432,1.51
1764751189.5216,1.57
1764751189.527869,1.51
1764751189.534085,1.52
1764751189.540373,1.57
1764751189.546497,1.47
1764751189.5529118,1.53
1764751189.559072,1.53
1764751189.5652401,1.48
1764751189.571577,1.55
1764751189.577834,1.49
1764751189.584043,1.5
1764751189.5903769,1.54
1764751189.596541,1.48
1764751189.602966,1.53
1764751189.60916,1.51
1764751189.615359,1.47
1764751189.6217659,1.54
1764751189.627869,1.47
1764751189.634157,1.48
1764751189.6404731,1.52
1764751189.646645,1.47
1764751189.652877,1.52
1764751189.6592672,1.51
1764751189.665324,1.46
1764751189.672082,1.54
1764751189.6778948,1.48
1764751189.684059,1.47
1764751189.690486,1.52
1764751189.6966898,1.46
1764751189.70288,1.52
1764751189.7092931,1.55
1764751189.715335,1.58
1764751189.7223291,1.67
1764751189.727953,1.56
1764751189.7340841,1.59
1764751189.740374,1.62
1764751189.746725,1.49
1764751189.7528598,1.56
1764751189.759212,1.55
1764751189.765322,1.42
1764751189.771689,1.46
1764751189.777835,1.42
1764751189.78405,1.45
1764751189.7903502,1.49
1764751189.796747,1.4
1764751189.8028858,1.46
1764751189.8091898,1.45
1764751189.81532,1.41
1764751189.821595,1.5
1764751189.827848,1.44
1764751189.834049,1.44
1764751189.840307,1.5
1764751189.846498,1.44
1764751189.853158,1.47
1764751189.859141,1.55
1764751189.865376,1.77
1764751189.871955,2.38
1764751189.8777542,2.82
1764751189.883976,2.73
1764751189.890326,2.23
1764751189.8964689,1.16
1764751189.902852,1.08
1764751189.90913,1.52
1764751189.91572,1.56
1764751189.921623,1.47
1764751189.927846,1.39
1764751189.9339972,1.45
1764751189.9403021,1.48
1764751189.946499,1.39
1764751189.9528131,1.47
1764751189.959129,1.47
1764751189.9652622,1.42
1764751189.97168,1.5
1764751189.977857,1.45
1764751189.9840949,1.46
1764751189.9902,1.51
1764751189.9964118,1.44
1764751190.0028229,1.5
1764751190.009276,1.5
1764751190.015286,1.45
1764751190.021825,1.53
1764751190.027719,1.5
1764751190.033934,1.5
1764751190.040256,1.57
1764751190.04657,1.52
1764751190.052864,1.55
1764751190.059089,1.56
1764751190.065224,1.56
1764751190.071606,1.62
1764751190.077845,1.58
1764751190.083953,1.61
1764751190.0903301,1.68
1764751190.096571,1.61
1764751190.102829,1.69
1764751190.109014,1.69
1764751190.115345,1.64
1764751190.121609,1.72
1764751190.127755,1.69
1764751190.13397,1.68
1764751190.1403148,1.71
1764751190.14656,1.64
1764751190.152985,1.67
1764751190.15908,1.62
1764751190.165277,1.53
1764751190.171532,1.58
1764751190.17802,1.49
1764751190.184046,1.47
1764751190.190316,1.51
1764751190.1965508,1.42
1764751190.202806,1.47
1764751190.209277,1.45
1764751190.2152472,1.39
1764751190.221557,1.47
1764751190.2278242,1.44
1764751190.233956,1.43
1764751190.240155,1.46
1764751190.2464619,1.4
1764751190.252932,1.48
1764751190.2589571,1.47
1764751190.265304,1.43
1764751190.271729,1.51
1764751190.277764,1.45
1764751190.2838871,1.47
1764751190.290234,1.52
1764751190.296493,1.45
1764751190.3028932,1.51
1764751190.308956,1.51
1764751190.315198,1.45
1764751190.321594,1.53
1764751190.327769,1.49
1764751190.3339221,1.48
1764751190.340263,1.53
1764751190.346476,1.45
1764751190.352895,1.49
1764751190.3590138,1.51
1764751190.365142,1.46
1764751190.3718011,1.53
1764751190.377696,1.48
1764751190.383947,1.48
1764751190.390292,1.52
1764751190.39648,1.46
1764751190.402835,1.51
1764751190.409044,1.51
1764751190.415214,1.46
1764751190.421729,1.51
1764751190.4739,1.47
1764751190.4740732,1.48
1764751190.47421,1.53
1764751190.474381,1.45
1764751190.482073,1.5
1764751190.48517,1.49
1764751190.485322,1.45
1764751190.485471,1.52
1764751190.485656,1.47
1764751190.485822,1.47
1764751190.507135,1.52
1764751190.507293,1.45
1764751190.5074391,1.5
1764751190.508946,1.51
1764751190.5152,1.47
1764751190.5216289,1.53
1764751190.527701,1.5
1764751190.5339441,1.57
1764751190.5401652,1.64
1764751190.546488,1.54
1764751190.552726,1.63
1764751190.558979,1.62
1764751190.565258,1.52
1764751190.571509,1.61
1764751190.577736,1.54
1764751190.583953,1.47
1764751190.590397,1.51
1764751190.596436,1.45
1764751190.602731,1.51
1764751190.608961,1.5
1764751190.6152709,1.43
1764751190.621482,1.52
1764751190.6276321,1.47
1764751190.633923,1.48
1764751190.6402822,1.53
1764751190.6463628,1.48
1764751190.652682,1.52
1764751190.6589172,1.52
1764751190.665185,1.46
1764751190.6714602,1.56
1764751190.677629,1.6
1764751190.683887,1.85
1764751190.690202,2.48
1764751190.696604,2.9
1764751190.702691,2.82
1764751190.708982,2.24
1764751190.715151,1.24
1764751190.721608,1.2
1764751190.727672,1.51
1764751190.734032,1.55
1764751190.740128,1.54
1764751190.746372,1.45
1764751190.752909,1.53
1764751190.758921,1.51
1764751190.765096,1.44
1764751190.7713459,1.54
1764751190.777608,1.51
1764751190.783863,1.51
1764751190.790081,1.55
1764751190.796372,1.47
1764751190.802969,1.55
1764751190.808938,1.55
1764751190.8151932,1.52
1764751190.821393,1.6
1764751190.827797,1.53
1764751190.8339021,1.55
1764751190.8401449,1.62
1764751190.8464189,1.53
1764751190.853744,1.59
1764751190.8589172,1.61
1764751190.865047,1.57
1764751190.8714519,1.68
1764751190.8777611,1.66
1764751190.884089,1.68
1764751190.890073,1.75
1764751190.896204,1.71
1764751190.9032571,1.77
1764751190.9091232,1.79
1764751190.9150898,1.76
1764751190.921292,1.85
1764751190.927587,1.81
1764751190.933839,1.79
1764751190.9400551,1.88
1764751190.946336,1.82
1764751190.953145,1.84
1764751190.959279,1.84
1764751190.9651,1.78
1764751190.9714072,1.82
1764751190.977636,1.75
1764751190.987448,1.69
1764751190.9902852,1.72
1764751190.996356,1.62
1764751191.0067992,1.64
1764751191.009686,1.64
1764751191.015193,1.56
1764751191.021968,1.61
1764751191.027669,1.58
1764751191.036227,1.56
1764751191.040409,1.61
1764751191.046398,1.54
1764751191.0529711,1.57
1764751191.059146,1.6
1764751191.066389,1.55
1764751191.072042,1.61
1764751191.077628,1.57
1764751191.0838249,1.55
1764751191.0905569,1.64
1764751191.096786,1.55
1764751191.102755,1.6
1764751191.108803,1.64
1764751191.115076,1.56
1764751191.121314,1.62
1764751191.127608,1.58
1764751191.133929,1.57
1764751191.140042,1.65
1764751191.1464078,1.56
1764751191.1525812,1.59
1764751191.158853,1.61
1764751191.1651552,1.56
1764751191.1736488,1.62
1764751191.177562,1.58
1764751191.1837592,1.56
1764751191.19028,1.63
1764751191.196754,1.53
1764751191.203101,1.54
1764751191.208884,1.59
1764751191.2150478,1.55
1764751191.2214,1.6
1764751191.227612,1.55
1764751191.2337978,1.54
1764751191.240417,1.61
1764751191.246579,1.53
1764751191.252576,1.57
1764751191.259024,1.58
1764751191.264909,1.51
1764751191.2712462,1.59
1764751191.277499,1.57
1764751191.283767,1.54
1764751191.2901042,1.59
1764751191.296264,1.53
1764751191.302579,1.58
1764751191.3092742,1.61
1764751191.314989,1.54
1764751191.321162,1.58
1764751191.327471,1.56
1764751191.333725,1.56
1764751191.339968,1.63
1764751191.3462038,1.54
1764751191.352534,1.55
1764751191.358689,1.61
1764751191.3649971,1.61
1764751191.371212,1.71
1764751191.377717,1.65
1764751191.3843882,1.64
1764751191.389934,1.76
1764751191.396232,1.65
1764751191.4025311,1.59
1764751191.4086819,1.63
1764751191.415004,1.57
1764751191.421197,1.57
1764751191.427385,1.53
1764751191.433613,1.52
1764751191.439948,1.58
1764751191.44612,1.49
1764751191.452522,1.52
1764751191.458637,1.55
1764751191.46495,1.5
1764751191.471176,1.58
1764751191.4773812,1.53
1764751191.483638,1.51
1764751191.4899058,1.59
1764751191.496074,1.52
1764751191.502538,1.55
1764751191.50859,1.56
1764751191.515027,1.62
1764751191.5211608,1.96
1764751191.527502,2.51
1764751191.53366,2.93
1764751191.540055,2.86
1764751191.546122,2.16
1764751191.55252,1.22
1764751191.5587049,1.24
1764751191.565017,1.57
1764751191.571276,1.66
1764751191.5774531,1.51
1764751191.5838668,1.49
1764751191.590027,1.59
1764751191.596156,1.52
1764751191.6024399,1.52
1764751191.608664,1.55
1764751191.6149702,1.5
1764751191.621205,1.58
1764751191.627541,1.53
1764751191.633725,1.51
1764751191.639891,1.59
1764751191.646199,1.53
1764751191.652523,1.55
1764751191.6586618,1.6
1764751191.664864,1.53
1764751191.671259,1.59
1764751191.6774662,1.58
1764751191.6836329,1.55
1764751191.689909,1.63
1764751191.696077,1.57
1764751191.702559,1.61
1764751191.7086341,1.63
1764751191.714886,1.59
1764751191.7212129,1.69
1764751191.727427,1.64
1764751191.73364,1.63
1764751191.73997,1.74
1764751191.746086,1.68
1764751191.752526,1.73
1764751191.7585878,1.75
1764751191.764838,1.66
1764751191.771144,1.75
1764751191.777399,1.75
1764751191.783638,1.72
1764751191.7898839,1.75
1764751191.796084,1.69
1764751191.8024771,1.75
1764751191.8085508,1.72
1764751191.814846,1.56
1764751191.82108,1.66
1764751191.8273568,1.62
1764751191.833628,1.52
1764751191.8399072,1.55
1764751191.8460312,1.51
1764751191.852415,1.48
1764751191.8585339,1.43
1764751191.864864,1.38
1764751191.8710341,1.48
1764751191.877312,1.42
1764751191.8835871,1.38
1764751191.889816,1.45
1764751191.896035,1.27
1764751191.9024231,1.2
1764751191.90861,0.87
1764751191.914836,0.81
1764751191.921011,0.96
1764751191.927352,1.04
1764751191.9336,1.02
1764751191.93981,0.96
1764751191.9459898,1.05
1764751191.952461,1.07
1764751191.9584692,1.04
1764751191.96479,1.09
1764751191.971029,1.06
1764751191.977269,1.09
1764751191.983516,1.14
1764751191.98976,1.1
1764751191.995996,1.17
1764751192.002361,1.18
1764751192.0086,1.11
1764751192.014812,1.17
1764751192.0210261,1.16
1764751192.0273652,1.18
1764751192.03356,1.24
1764751192.0397272,1.17
1764751192.046023,1.23
1764751192.052382,1.23
1764751192.0585248,1.18
1764751192.064787,1.25
1764751192.075007,1.25
1764751192.099175,1.27
1764751192.1147032,1.29
1764751192.1213188,1.25
1764751192.125129,1.34
1764751192.136565,1.33
1764751192.1577642,1.28
1764751192.158081,1.36
1764751192.158367,1.3
1764751192.159662,1.3
1764751192.1607838,1.38
1764751192.1615,1.33
1764751192.1620119,1.36
1764751192.162575,1.38
1764751192.163085,1.39
1764751192.165042,1.46
1764751192.17121,1.45
1764751192.1774468,1.53
1764751192.183698,1.59
1764751192.18987,1.52
1764751192.19614,1.56
1764751192.202732,1.55
1764751192.2085912,1.48
1764751192.214825,1.57
1764751192.221167,1.48
1764751192.227328,1.41
1764751192.233581,1.46
1764751192.239799,1.44
1764751192.246046,1.46
1764751192.252495,1.46
1764751192.258571,1.44
1764751192.264739,1.52
1764751192.2710268,1.49
1764751192.277268,1.51
1764751192.283537,1.52
1764751192.289679,1.46
1764751192.2960398,1.57
1764751192.303045,1.56
1764751192.3084748,1.48
1764751192.314817,1.6
1764751192.32098,1.65
1764751192.3272462,1.85
1764751192.333486,2.5
1764751192.339891,2.96
1764751192.346099,2.88
1764751192.352341,2.31
1764751192.358602,1.34
1764751192.3647108,1.27
1764751192.370964,1.58
1764751192.377245,1.63
1764751192.3835242,1.63
1764751192.389765,1.54
1764751192.395962,1.62
1764751192.4023712,1.64
1764751192.408555,1.58
1764751192.414668,1.63
1764751192.420927,1.59
1764751192.4272199,1.62
1764751192.43346,1.68
1764751192.439702,1.6
1764751192.4459908,1.67
1764751192.452279,1.66
1764751192.458486,1.64
1764751192.464733,1.69
1764751192.470918,1.67
1764751192.477212,1.71
1764751192.4834309,1.72
1764751192.4898298,1.65
1764751192.495896,1.74
1764751192.5022552,1.74
1764751192.5084538,1.73
1764751192.5147352,1.79
1764751192.5209112,1.74
1764751192.527199,1.78
1764751192.533466,1.82
1764751192.539636,1.79
1764751192.54595,1.88
1764751192.552244,1.89
1764751192.558444,1.84
1764751192.564665,1.92
1764751192.570987,1.91
1764751192.577186,1.91
1764751192.583429,1.96
1764751192.5896351,1.87
1764751192.5959628,1.92
1764751192.602258,1.91
1764751192.608494,1.82
1764751192.6147258,1.85
1764751192.620966,1.79
1764751192.627224,1.78
1764751192.633476,1.8
1764751192.6397471,1.72
1764751192.645979,1.75
1764751192.65228,1.74
1764751192.65852,1.71
1764751192.664782,1.69
1764751192.670986,1.64
1764751192.677232,1.67
1764751192.683445,1.69
1764751192.689721,1.65
1764751192.695999,1.7
1764751192.70245,1.67
1764751192.708503,1.67
1764751192.71468,1.74
1764751192.7208588,1.7
1764751192.7272232,1.69
1764751192.7334578,1.73
1764751192.739701,1.68
1764751192.746037,1.73
1764751192.752289,1.74
1764751192.758502,1.71
1764751192.764705,1.75
1764751192.7709389,1.72
1764751192.77726,1.74
1764751192.7835488,1.75
1764751192.78971,1.71
1764751192.795954,1.74
1764751192.802461,1.75
1764751192.8084962,1.68
1764751192.8147619,1.73
1764751192.821224,1.7
1764751192.8273559,1.71
1764751192.8334908,1.74
1764751192.839812,1.67
1764751192.8460748,1.73
1764751192.852391,1.74
1764751192.85852,1.7
1764751192.864794,1.72
1764751192.871037,1.69
1764751192.877341,1.72
1764751192.883585,1.73
1764751192.889802,1.66
1764751192.896068,1.7
1764751192.9025202,1.68
1764751192.9084852,1.65
1764751192.914742,1.73
1764751192.921029,1.69
1764751192.927257,1.68
1764751192.933492,1.72
1764751192.9396322,1.67
1764751192.945973,1.72
1764751192.95226,1.7
1764751192.958452,1.68
1764751192.964788,1.74
1764751192.9709141,1.73
1764751192.9771369,1.74
1764751192.9834938,1.82
1764751192.989654,1.78
1764751192.995918,1.84
1764751193.00225,1.85
1764751193.00847,1.74
1764751193.014612,1.73
1764751193.020809,1.72
1764751193.027242,1.71
1764751193.0334778,1.67
1764751193.039574,1.58
1764751193.045861,1.65
1764751193.052205,1.65
1764751193.058382,1.59
1764751193.064724,1.67
1764751193.070826,1.65
1764751193.077139,1.62
1764751193.083377,1.62
1764751193.089579,1.59
1764751193.095864,1.67
1764751193.10221,1.65
1764751193.10831,1.58
1764751193.114662,1.65
1764751193.120942,1.63
1764751193.12709,1.73
1764751193.133425,2.08
1764751193.13965,2.65
1764751193.145906,3.05
1764751193.152245,2.81
1764751193.158388,2.02
1764751193.164595,1.26
1764751193.170891,1.39
1764751193.17716,1.74
1764751193.183326,1.73
1764751193.1895459,1.59
1764751193.1958752,1.6
1764751193.202473,1.58
1764751193.208333,1.54
1764751193.214626,1.6
1764751193.220865,1.57
1764751193.2271109,1.59
1764751193.233412,1.63
1764751193.2396219,1.6
1764751193.2458491,1.67
1764751193.252478,1.66
1764751193.258385,1.59
1764751193.264578,1.64
1764751193.270876,1.64
1764751193.277153,1.64
1764751193.2834299,1.67
1764751193.289574,1.59
1764751193.295917,1.6
1764751193.3023129,1.66
1764751193.3083389,1.66
1764751193.3145778,1.7
1764751193.320881,1.69
1764751193.3271182,1.74
1764751193.3334022,1.73
1764751193.339541,1.66
1764751193.345829,1.74
1764751193.352385,1.74
1764751193.358312,1.7
1764751193.364519,1.81
1764751193.370877,1.76
1764751193.3770502,1.75
1764751193.383322,1.8
1764751193.389614,1.77
1764751193.395752,1.81
1764751193.402326,1.8
1764751193.4083252,1.75
1764751193.4145799,1.8
1764751193.420854,1.72
1764751193.4271228,1.68
1764751193.433366,1.69
1764751193.4395251,1.58
1764751193.4458308,1.59
1764751193.452115,1.6
1764751193.458304,1.52
1764751193.464575,1.56
1764751193.470929,1.52
1764751193.47701,1.51
1764751193.48336,1.55
1764751193.489559,1.49
1764751193.495818,1.52
1764751193.5021691,1.55
1764751193.50878,1.5
1764751193.514633,1.53
1764751193.520768,1.5
1764751193.527078,1.52
1764751193.533379,1.56
1764751193.554673,1.51
1764751193.5555022,1.54
1764751193.568577,1.54
1764751193.584524,1.51
1764751193.5846882,1.57
1764751193.599057,1.51
1764751193.6094131,1.5
1764751193.651982,1.57
1764751193.653787,1.52
1764751193.6539469,1.53
1764751193.6541,1.54
1764751193.6542542,1.51
1764751193.655493,1.56
1764751193.6559381,1.53
1764751193.656107,1.52
1764751193.6562712,1.55
1764751193.656427,1.5
1764751193.656588,1.53
1764751193.656752,1.55
1764751193.658429,1.5
1764751193.664765,1.54
1764751193.685123,1.52
1764751193.685638,1.52
1764751193.6858969,1.56
1764751193.68963,1.51
1764751193.6961029,1.54
1764751193.7024388,1.55
1764751193.70845,1.49
1764751193.714578,1.55
1764751193.7208169,1.54
1764751193.72721,1.53
1764751193.733384,1.57
1764751193.739827,1.52
1764751193.745908,1.55
1764751193.7521431,1.56
1764751193.7584388,1.51
1764751193.764656,1.56
1764751193.7708318,1.55
1764751193.777087,1.52
1764751193.7836642,1.57
1764751193.7896042,1.56
1764751193.795878,1.64
1764751193.802078,1.7
1764751193.808949,1.64
1764751193.8146482,1.69
1764751193.820926,1.68
1764751193.827351,1.62
1764751193.833461,1.63
1764751193.839625,1.59
1764751193.84584,1.59
1764751193.852752,1.52
1764751193.8587132,1.48
1764751193.864626,1.57
1764751193.8708532,1.54
1764751193.877176,1.49
1764751193.883428,1.52
1764751193.889676,1.51
1764751193.895831,1.52
1764751193.9021661,1.52
1764751193.908362,1.49
1764751193.9145448,1.55
1764751193.920864,1.53
1764751193.927073,1.52
1764751193.9337652,1.56
1764751193.939569,1.53
1764751193.945861,1.73
1764751193.9521952,2.13
1764751193.9583628,2.71
1764751193.9646049,2.97
1764751193.970863,2.59
1764751193.977084,1.71
1764751193.98349,1.11
1764751193.989506,1.37
1764751193.995754,1.62
1764751194.0020711,1.58
1764751194.008251,1.49
1764751194.0144901,1.54
1764751194.02075,1.52
1764751194.0269911,1.5
1764751194.0333068,1.56
1764751194.039517,1.51
1764751194.0457401,1.52
1764751194.051945,1.55
1764751194.0582569,1.52
1764751194.064703,1.58
1764751194.071177,1.52
1764751194.077047,1.52
1764751194.0833972,1.59
1764751194.089458,1.53
1764751194.0956821,1.55
1764751194.102036,1.57
1764751194.1082351,1.53
1764751194.1144361,1.62
1764751194.1206589,1.6
1764751194.12694,1.56
1764751194.1335921,1.61
1764751194.139499,1.58
1764751194.14571,1.63
1764751194.1520839,1.65
1764751194.158294,1.61
1764751194.1643982,1.67
1764751194.170662,1.67
1764751194.176925,1.68
1764751194.183386,1.73
1764751194.189562,1.68
1764751194.195644,1.72
1764751194.2020962,1.74
1764751194.20824,1.69
1764751194.2144,1.74
1764751194.2206888,1.71
1764751194.226997,1.69
1764751194.233442,1.72
1764751194.239466,1.62
1764751194.245677,1.6
1764751194.25217,1.6
1764751194.2583601,1.54
1764751194.264363,1.56
1764751194.2707222,1.52
1764751194.2769952,1.47
1764751194.283529,1.49
1764751194.289365,1.45
1764751194.29563,1.48
1764751194.301916,1.49
1764751194.3083131,1.43
1764751194.314393,1.48
1764751194.320666,1.46
1764751194.3268428,1.44
1764751194.3332841,1.5
1764751194.3394718,1.46
1764751194.3457541,1.48
1764751194.352319,1.51
1764751194.358519,1.48
1764751194.364437,1.51
1764751194.370656,1.5
1764751194.3768802,1.48
1764751194.383292,1.51
1764751194.3895402,1.46
1764751194.395686,1.5
1764751194.402039,1.52
1764751194.408287,1.46
1764751194.414454,1.51
1764751194.4206421,1.49
1764751194.4269629,1.47
1764751194.433629,1.52
1764751194.4394822,1.45
1764751194.445747,1.48
1764751194.451956,1.5
1764751194.458127,1.47
1764751194.46433,1.5
1764751194.470551,1.48
1764751194.4768121,1.48
1764751194.4833028,1.51
1764751194.489388,1.45
1764751194.4955468,1.49
1764751194.502029,1.51
1764751194.50814,1.46
1764751194.514432,1.51
1764751194.520588,1.52
1764751194.5268412,1.56
1764751194.533356,1.66
1764751194.539327,1.61
1764751194.54565,1.62
1764751194.552021,1.62
1764751194.558398,1.52
1764751194.564418,1.58
1764751194.5706081,1.52
1764751194.57682,1.43
1764751194.583303,1.47
1764751194.589432,1.43
1764751194.595686,1.45
1764751194.6019719,1.45
1764751194.608169,1.42
1764751194.61434,1.48
1764751194.620746,1.46
1764751194.626868,1.46
1764751194.633313,1.49
1764751194.6394281,1.45
1764751194.6456552,1.49
1764751194.651828,1.5
1764751194.6581209,1.45
1764751194.664366,1.5
1764751194.670631,1.58
1764751194.676841,1.79
1764751194.683135,2.41
1764751194.6894348,2.91
1764751194.6955452,2.78
1764751194.701869,2.17
1764751194.7081668,1.23
1764751194.7143528,1.2
1764751194.720605,1.49
1764751194.726897,1.49
1764751194.7332659,1.49
1764751194.739437,1.45
1764751194.745708,1.48
1764751194.751997,1.48
1764751194.758581,1.44
1764751194.764323,1.5
1764751194.770703,1.49
1764751194.7769432,1.46
1764751194.783296,1.51
1764751194.789376,1.48
1764751194.7956412,1.51
1764751194.801901,1.53
1764751194.808577,1.5
1764751194.81442,1.54
1764751194.820735,1.52
1764751194.8269491,1.49
1764751194.833202,1.57
1764751194.8393128,1.52
1764751194.845572,1.54
1764751194.851775,1.58
1764751194.8581061,1.55
1764751194.864276,1.59
1764751194.870639,1.59
1764751194.876769,1.59
1764751194.883126,1.65
1764751194.889569,1.61
1764751194.895583,1.65
1764751194.9018612,1.69
1764751194.908261,1.64
1764751194.914263,1.69
1764751194.920635,1.69
1764751194.926799,1.66
1764751194.933239,1.72
1764751194.939271,1.7
1764751194.945539,1.69
1764751194.951819,1.7
1764751194.958032,1.65
1764751194.9643362,1.68
1764751194.9704828,1.61
1764751194.976778,1.56
1764751194.9831092,1.6
1764751194.9893062,1.53
1764751194.995467,1.52
1764751195.001778,1.54
1764751195.008031,1.47
1764751195.014304,1.51
1764751195.0206232,1.49
1764751195.026806,1.48
1764751195.033109,1.54
1764751195.0393229,1.48
1764751195.0454788,1.48
1764751195.0518882,1.53
1764751195.058115,1.49
1764751195.0644212,1.54
1764751195.070688,1.53
1764751195.0767722,1.52
1764751195.083395,1.57
1764751195.089377,1.52
1764751195.095585,1.55
1764751195.10186,1.59
1764751195.108143,1.53
1764751195.114443,1.57
1764751195.1207428,1.56
1764751195.12693,1.52
1764751195.133475,1.57
1764751195.13948,1.53
1764751195.145563,1.55
1764751195.1518452,1.57
1764751195.1581829,1.52
1764751195.164418,1.56
1764751195.170864,1.55
1764751195.176824,1.52
1764751195.1832051,1.58
1764751195.189481,1.52
1764751195.1955771,1.55
1764751195.201958,1.58
1764751195.208065,1.51
1764751195.214398,1.55
1764751195.220653,1.55
1764751195.226999,1.52
1764751195.234306,1.61
1764751195.239337,1.64
1764751195.333492,1.71
1764751195.333739,1.72
1764751195.334364,1.65
1764751195.3345761,1.7
1764751195.334869,1.63
1764751195.335111,1.59
1764751195.335299,1.62
1764751195.335676,1.51
1764751195.335983,1.49
1764751195.336382,1.53
1764751195.336567,1.5
1764751195.33682,1.53
1764751195.33703,1.51
1764751195.3372102,1.5
1764751195.338102,1.54
1764751195.339663,1.5
1764751195.345825,1.52
1764751195.352065,1.56
1764751195.358111,1.51
1764751195.3643992,1.55
1764751195.370653,1.54
1764751195.3769789,1.5
1764751195.383144,1.61
1764751195.390465,1.76
1764751195.398453,2.25
1764751195.4061708,2.92
1764751195.4119549,2.88
1764751195.414361,2.44
1764751195.4223921,1.46
1764751195.427982,1.06
1764751195.433236,1.52
1764751195.439322,1.65
1764751195.445536,1.53
1764751195.451839,1.5
1764751195.45813,1.49
1764751195.464538,1.54
1764751195.4707189,1.53
1764751195.4768682,1.5
1764751195.483211,1.56
1764751195.4892569,1.52
1764751195.495488,1.55
1764751195.5018308,1.56
1764751195.508044,1.51
1764751195.514273,1.58
1764751195.520444,1.57
1764751195.526758,1.53
1764751195.5331259,1.59
1764751195.539295,1.56
1764751195.54546,1.58
1764751195.551733,1.62
1764751195.557993,1.57
1764751195.564233,1.62
1764751195.5705862,1.63
1764751195.576915,1.61
1764751195.583155,1.68
1764751195.5893068,1.63
1764751195.595541,1.66
1764751195.60182,1.72
1764751195.608025,1.67
1764751195.6143029,1.73
1764751195.6205199,1.74
1764751195.626766,1.72
1764751195.633025,1.77
1764751195.639315,1.74
1764751195.645568,1.76
1764751195.651851,1.77
1764751195.6579578,1.72
1764751195.6643982,1.76
1764751195.6705081,1.74
1764751195.67677,1.68
1764751195.6830761,1.7
1764751195.689256,1.62
1764751195.695509,1.59
1764751195.701901,1.6
1764751195.708081,1.53
1764751195.714397,1.57
1764751195.720545,1.53
1764751195.7266629,1.49
1764751195.733163,1.54
1764751195.7392929,1.5
1764751195.745513,1.51
1764751195.7517729,1.54
1764751195.7581282,1.5
1764751195.7643461,1.54
1764751195.7705238,1.54
1764751195.7766888,1.51
1764751195.7830431,1.57
1764751195.7891881,1.54
1764751195.7954738,1.56
1764751195.801729,1.59
1764751195.807926,1.52
1764751195.814592,1.56
1764751195.8206131,1.57
1764751195.826913,1.54
1764751195.833003,1.61
1764751195.839205,1.55
1764751195.845535,1.56
1764751195.851722,1.59
1764751195.85815,1.53
1764751195.864238,1.58
1764751195.8704488,1.58
1764751195.876736,1.52
1764751195.8830059,1.58
1764751195.889201,1.55
1764751195.8953679,1.55
1764751195.90175,1.56
1764751195.907968,1.52
1764751195.9141629,1.57
1764751195.9204092,1.56
1764751195.926663,1.52
1764751195.933026,1.58
1764751195.9391649,1.55
1764751195.945419,1.54
1764751195.951682,1.57
1764751195.957846,1.52
1764751195.964179,1.58
1764751195.970468,1.57
1764751195.976664,1.55
1764751195.9829628,1.69
1764751195.9892511,1.69
1764751195.995376,1.67
1764751196.001701,1.75
1764751196.0078778,1.73
1764751196.014094,1.71
1764751196.02048,1.65
1764751196.02662,1.62
1764751196.032952,1.67
1764751196.0391932,1.55
1764751196.045512,1.49
1764751196.051712,1.54
1764751196.0579672,1.5
1764751196.064147,1.52
1764751196.070378,1.51
1764751196.07664,1.48
1764751196.082973,1.53
1764751196.08919,1.5
1764751196.095371,1.52
1764751196.101654,1.54
1764751196.1080372,1.49
1764751196.11425,1.54
1764751196.120447,1.54
1764751196.126724,1.48
1764751196.132993,1.55
1764751196.139227,1.67
1764751196.1454232,2.02
1764751196.1516988,2.68
1764751196.157908,2.92
1764751196.164175,2.66
1764751196.1703749,1.79
1764751196.1766279,1.01
1764751196.182917,1.37
1764751196.189145,1.66
1764751196.195414,1.58
1764751196.201714,1.52
1764751196.208077,1.5
1764751196.214195,1.55
1764751196.220333,1.53
1764751196.226583,1.5
1764751196.232842,1.57
1764751196.239239,1.53
1764751196.245323,1.54
1764751196.251612,1.59
1764751196.257822,1.53
1764751196.264055,1.56
1764751196.27041,1.59
1764751196.276604,1.55
1764751196.2829719,1.6
1764751196.2895901,1.59
1764751196.295339,1.6
1764751196.301614,1.62
1764751196.307848,1.57
1764751196.314097,1.64
1764751196.320292,1.63
1764751196.3265312,1.59
1764751196.332872,1.68
1764751196.339113,1.66
1764751196.3454049,1.68
1764751196.351603,1.73
1764751196.35785,1.67
1764751196.3641548,1.72
1764751196.370291,1.74
1764751196.376559,1.72
1764751196.382818,1.78
1764751196.3891141,1.75
1764751196.395274,1.75
1764751196.401589,1.79
1764751196.4077828,1.73
1764751196.4141529,1.75
1764751196.4203572,1.77
1764751196.426564,1.7
1764751196.432802,1.73
1764751196.439104,1.65
1764751196.44526,1.59
1764751196.451701,1.62
1764751196.457814,1.55
1764751196.465183,1.56
1764751196.470262,1.56
1764751196.476644,1.52
1764751196.482931,1.55
1764751196.489084,1.5
1764751196.49528,1.51
1764751196.501599,1.55
1764751196.507858,1.5
1764751196.514034,1.53
1764751196.5202591,1.55
1764751196.526575,1.51
1764751196.532892,1.57
1764751196.5390568,1.54
1764751196.5453608,1.52
1764751196.551688,1.57
1764751196.557861,1.52
1764751196.5641558,1.57
1764751196.5704908,1.58
1764751196.576572,1.52
1764751196.582995,1.58
1764751196.589172,1.57
1764751196.595281,1.55
1764751196.601654,1.58
1764751196.607869,1.54
1764751196.6140459,1.58
1764751196.620429,1.57
1764751196.626519,1.52
1764751196.632787,1.58
1764751196.639145,1.54
1764751196.64524,1.53
1764751196.651492,1.58
1764751196.657852,1.51
1764751196.6641102,1.54
1764751196.6703029,1.56
1764751196.676579,1.51
1764751196.682842,1.56
1764751196.6891258,1.55
1764751196.6953468,1.53
1764751196.701654,1.56
1764751196.7078662,1.52
1764751196.714096,1.54
1764751196.7203782,1.56
1764751196.726676,1.58
1764751196.732825,1.69
1764751196.73914,1.65
1764751196.745455,1.67
1764751196.751659,1.74
1764751196.757798,1.64
1764751196.764352,1.63
1764751196.7703412,1.62
1764751196.776566,1.6
1764751196.7828171,1.59
1764751196.789012,1.49
1764751196.795291,1.47
1764751196.8015418,1.51
1764751196.8076952,1.47
1764751196.814053,1.5
1764751196.820299,1.51
1764751196.826615,1.48
1764751196.833208,1.53
1764751196.839147,1.49
1764751196.845243,1.5
1764751196.8515918,1.54
1764751196.8578272,1.49
1764751196.8641121,1.52
1764751196.870249,1.52
1764751196.876627,1.49
1764751196.8833191,1.67
1764751196.8891761,1.9
1764751196.895283,2.46
1764751196.901579,3.01
1764751196.907765,2.77
1764751196.914273,2.06
1764751196.920289,1.22
1764751196.9265049,1.21
1764751196.932836,1.57
1764751196.9391181,1.54
1764751196.945235,1.47
1764751196.9514081,1.52
1764751196.957804,1.51
1764751196.964075,1.52
1764751196.97032,1.51
1764751196.976591,1.48
1764751196.982879,1.53
1764751196.989065,1.51
1764751196.995469,1.52
1764751197.0015402,1.57
1764751197.007914,1.51
1764751197.041643,1.54
1764751197.0599859,1.58
1764751197.0601358,1.55
1764751197.066601,1.57
1764751197.066668,1.55
1764751197.0667279,1.55
1764751197.066786,1.61
1764751197.07417,1.56
1764751197.094622,1.6
1764751197.094935,1.62
1764751197.095229,1.59
1764751197.0954099,1.65
1764751197.095767,1.64
1764751197.096001,1.64
1764751197.1015449,1.7
1764751197.110811,1.66
1764751197.119951,1.69
1764751197.122106,1.72
1764751197.128493,1.69
1764751197.134057,1.74
1764751197.139578,1.71
1764751197.1452549,1.72
1764751197.151596,1.77
1764751197.1577768,1.72
1764751197.1640189,1.71
1764751197.170123,1.71
1764751197.176384,1.64
1764751197.1830049,1.68
1764751197.189087,1.63
1764751197.195224,1.59
1764751197.201429,1.61
1764751197.207684,1.53
1764751197.2139552,1.55
1764751197.2200608,1.56
1764751197.226382,1.52
1764751197.233186,1.55
1764751197.2389388,1.51
1764751197.245253,1.51
1764751197.251393,1.57
1764751197.257665,1.51
1764751197.2640152,1.53
1764751197.270147,1.57
1764751197.2765388,1.52
1764751197.282933,1.58
1764751197.2889721,1.56
1764751197.2952058,1.57
1764751197.301607,1.59
1764751197.3078249,1.53
1764751197.3143759,1.59
1764751197.3201852,1.6
1764751197.32653,1.55
1764751197.333148,1.6
1764751197.3390138,1.59
1764751197.3451362,1.56
1764751197.351371,1.6
1764751197.3576908,1.55
1764751197.3640819,1.57
1764751197.3700569,1.58
1764751197.376466,1.55
1764751197.3830369,1.59
1764751197.38907,1.56
1764751197.395114,1.55
1764751197.401419,1.59
1764751197.407626,1.54
1764751197.413954,1.57
1764751197.420245,1.59
1764751197.4264588,1.53
1764751197.4327822,1.58
1764751197.438895,1.59
1764751197.44517,1.66
1764751197.4515269,1.71
1764751197.457633,1.65
1764751197.464115,1.75
1764751197.4702861,1.77
1764751197.476419,1.66
1764751197.48333,1.65
1764751197.4890308,1.64
1764751197.495305,1.62
1764751197.5014021,1.57
1764751197.507784,1.49
1764751197.513911,1.53
1764751197.520144,1.53
1764751197.526436,1.47
1764751197.532727,1.52
1764751197.538958,1.51
1764751197.545173,1.5
1764751197.551404,1.53
1764751197.557569,1.5
1764751197.563956,1.53
1764751197.570091,1.55
1764751197.576468,1.51
1764751197.583025,1.55
1764751197.5888698,1.52
1764751197.5951731,1.53
1764751197.601366,1.7
1764751197.607842,1.96
1764751197.614075,2.61
1764751197.620112,3.02
1764751197.62649,2.71
1764751197.632816,2.02
1764751197.638856,1.15
1764751197.645083,1.24
1764751197.6515179,1.63
1764751197.6576838,1.56
1764751197.664015,1.5
1764751197.670047,1.53
1764751197.676319,1.51
1764751197.6826189,1.53
1764751197.68894,1.52
1764751197.695101,1.51
1764751197.701281,1.56
1764751197.707586,1.52
1764751197.713886,1.55
1764751197.720201,1.57
1764751197.726423,1.52
1764751197.7328792,1.57
1764751197.738806,1.56
1764751197.7450628,1.55
1764751197.752042,1.61
1764751197.7575428,1.57
1764751197.763937,1.58
1764751197.770255,1.6
1764751197.776376,1.58
1764751197.782656,1.63
1764751197.7888482,1.62
1764751197.7952058,1.62
1764751197.8015301,1.68
1764751197.8076532,1.63
1764751197.813968,1.67
1764751197.82002,1.7
1764751197.8262882,1.67
1764751197.83257,1.74
1764751197.83878,1.72
1764751197.845136,1.71
1764751197.8513632,1.76
1764751197.857541,1.72
1764751197.863988,1.74
1764751197.869983,1.75
1764751197.876308,1.7
1764751197.8827038,1.74
1764751197.8887858,1.71
1764751197.895026,1.65
1764751197.9012392,1.66
1764751197.907538,1.59
1764751197.9138129,1.58
1764751197.919994,1.57
1764751197.926305,1.52
1764751197.932669,1.56
1764751197.938818,1.53
1764751197.94503,1.49
1764751197.951366,1.54
1764751197.9576378,1.5
1764751197.964044,1.52
1764751197.970208,1.54
1764751197.976406,1.49
1764751197.982636,1.55
1764751197.9890718,1.55
1764751197.995018,1.52
1764751198.00135,1.56
1764751198.0075169,1.53
1764751198.014061,1.56
1764751198.019989,1.58
1764751198.0262961,1.53
1764751198.0325818,1.58
1764751198.038751,1.56
1764751198.045026,1.54
1764751198.051299,1.6
1764751198.057516,1.55
1764751198.063833,1.56
1764751198.0700579,1.59
1764751198.076329,1.54
1764751198.082816,1.58
1764751198.0888472,1.55
1764751198.095169,1.54
1764751198.101446,1.58
1764751198.107571,1.53
1764751198.114103,1.54
1764751198.120209,1.56
1764751198.1263602,1.52
1764751198.132857,1.57
1764751198.138848,1.55
1764751198.1451619,1.52
1764751198.151382,1.56
1764751198.157578,1.53
1764751198.16398,1.55
1764751198.170052,1.56
1764751198.176474,1.52
1764751198.182687,1.57
1764751198.188843,1.56
1764751198.1949718,1.52
1764751198.2013178,1.58
1764751198.207607,1.54
1764751198.213881,1.56
1764751198.219944,1.65
1764751198.2262132,1.65
1764751198.232398,1.69
1764751198.238718,1.7
1764751198.245047,1.71
1764751198.2512472,1.73
1764751198.2575018,1.62
1764751198.263872,1.6
1764751198.269999,1.66
1764751198.276324,1.55
1764751198.282573,1.52
1764751198.288906,1.5
1764751198.2949839,1.5
1764751198.301328,1.53
1764751198.307456,1.47
1764751198.313987,1.51
1764751198.3200462,1.54
1764751198.326533,1.47
1764751198.332855,1.52
1764751198.338758,1.52
1764751198.3450181,1.51
1764751198.351228,1.55
1764751198.357453,1.51
1764751198.363777,1.52
1764751198.369979,1.56
1764751198.37635,1.63
1764751198.382709,1.96
1764751198.388809,2.58
1764751198.3950348,2.93
1764751198.401354,2.74
1764751198.407476,1.94
1764751198.413907,1.07
1764751198.419994,1.27
1764751198.4265091,1.62
1764751198.432621,1.62
1764751198.438924,1.49
1764751198.4451,1.48
1764751198.451383,1.55
1764751198.457559,1.51
1764751198.463815,1.51
1764751198.470125,1.54
1764751198.476455,1.5
1764751198.482733,1.55
1764751198.488693,1.54
1764751198.49497,1.51
1764751198.501228,1.55
1764751198.5074718,1.52
1764751198.513742,1.55
1764751198.520006,1.58
1764751198.526502,1.53
1764751198.532663,1.58
1764751198.53887,1.57
1764751198.54492,1.57
1764751198.551297,1.63
1764751198.557557,1.58
1764751198.564079,1.61
1764751198.5699892,1.66
1764751198.576242,1.61
1764751198.582772,1.66
1764751198.588819,1.67
1764751198.5951118,1.66
1764751198.623928,1.74
1764751198.6415648,1.69
1764751198.645281,1.71
1764751198.645487,1.76
1764751198.6456268,1.72
1764751198.646365,1.74
1764751198.646545,1.74
1764751198.646684,1.72
1764751198.663042,1.76
1764751198.663688,1.71
1764751198.6638331,1.69
1764751198.673696,1.69
1764751198.676225,1.6
1764751198.682764,1.62
1764751198.68891,1.59
1764751198.694915,1.53
1764751198.701619,1.56
1764751198.707417,1.5
1764751198.713687,1.5
1764751198.719933,1.51
1764751198.72618,1.47
1764751198.732529,1.52
1764751198.738704,1.5
1764751198.7451708,1.48
1764751198.751261,1.53
1764751198.757501,1.49
1764751198.7651541,1.5
1764751198.769967,1.54
1764751198.776175,1.5
1764751198.782503,1.52
1764751198.788739,1.53
1764751198.79493,1.52
1764751198.801213,1.57
1764751198.8075001,1.53
1764751198.81376,1.53
1764751198.819874,1.56
1764751198.826165,1.52
1764751198.8324459,1.55
1764751198.838696,1.55
1764751198.844925,1.52
1764751198.851308,1.55
1764751198.857451,1.52
1764751198.863632,1.53
1764751198.869917,1.55
1764751198.876141,1.5
1764751198.8823879,1.55
1764751198.888675,1.54
1764751198.894867,1.51
1764751198.901058,1.54
1764751198.907336,1.51
1764751198.913811,1.52
1764751198.919863,1.54
1764751198.9261088,1.5
1764751198.9323862,1.54
1764751198.9385989,1.53
1764751198.944847,1.5
1764751198.9510632,1.55
1764751198.95734,1.52
1764751198.9638212,1.53
1764751198.969759,1.55
1764751198.9761121,1.5
1764751198.98242,1.55
1764751198.988677,1.54
1764751198.9948218,1.51
1764751199.001076,1.57
1764751199.007464,1.53
1764751199.0137331,1.53
1764751199.019874,1.56
1764751199.0262358,1.52
1764751199.032524,1.55
1764751199.038597,1.55
1764751199.045013,1.52
1764751199.051209,1.56
1764751199.05743,1.53
1764751199.063736,1.56
1764751199.069847,1.65
1764751199.0761359,1.65
1764751199.082665,1.68
1764751199.088607,1.71
1764751199.0948071,1.69
1764751199.101148,1.71
1764751199.1073432,1.63
1764751199.1136682,1.61
1764751199.119877,1.66
1764751199.126174,1.53
1764751199.132948,1.51
1764751199.138549,1.52
1764751199.1448178,1.49
1764751199.151157,1.53
1764751199.1573918,1.49
1764751199.163666,1.5
1764751199.169864,1.53
1764751199.1760929,1.48
1764751199.182493,1.52
1764751199.1885939,1.53
1764751199.194765,1.51
1764751199.2009869,1.54
1764751199.2073019,1.52
1764751199.213635,1.51
1764751199.2197928,1.56
1764751199.226107,1.65
1764751199.2324631,2.06
1764751199.2386198,2.69
1764751199.244792,2.88
1764751199.2511349,2.6
1764751199.2572641,1.71
1764751199.263573,1.04
1764751199.269807,1.38
1764751199.276011,1.62
1764751199.282342,1.57
1764751199.288511,1.49
1764751199.29488,1.48
1764751199.3011541,1.55
1764751199.307256,1.51
1764751199.313604,1.49
1764751199.3197792,1.54
1764751199.3260438,1.51
1764751199.332423,1.54
1764751199.338578,1.53
1764751199.3447309,1.52
1764751199.351016,1.57
1764751199.3572822,1.53
1764751199.363536,1.55
1764751199.369733,1.58
1764751199.37603,1.53
1764751199.38242,1.59
1764751199.388512,1.59
1764751199.394815,1.57
1764751199.401095,1.62
1764751199.4072719,1.59
1764751199.413921,1.6
1764751199.4198148,1.66
1764751199.426093,1.62
1764751199.432286,1.67
1764751199.438503,1.68
1764751199.4448462,1.67
1764751199.450987,1.73
1764751199.457178,1.7
1764751199.463576,1.72
1764751199.469758,1.78
1764751199.4760928,1.72
1764751199.482217,1.75
1764751199.48851,1.78
1764751199.494933,1.73
1764751199.501046,1.76
1764751199.507518,1.73
1764751199.5142899,1.71
1764751199.519768,1.7
1764751199.526054,1.62
1764751199.532243,1.63
1764751199.5385,1.59
1764751199.544885,1.53
1764751199.5509582,1.56
1764751199.557259,1.52
1764751199.564221,1.51
1764751199.5698838,1.53
1764751199.576107,1.47
1764751199.582422,1.51
1764751199.588533,1.52
1764751199.594954,1.48
1764751199.601119,1.53
1764751199.607276,1.5
1764751199.613627,1.5
1764751199.619905,1.55
1764751199.626199,1.51
1764751199.632521,1.53
1764751199.6384919,1.55
1764751199.644886,1.52
1764751199.651165,1.57
1764751199.6572402,1.53
1764751199.66365,1.55
1764751199.669774,1.58
1764751199.6760588,1.52
1764751199.682438,1.57
1764751199.68853,1.56
1764751199.6949801,1.52
1764751199.7011,1.59
1764751199.7073019,1.56
1764751199.7138271,1.54
1764751199.719888,1.56
1764751199.7261388,1.52
1764751199.732461,1.56
1764751199.738485,1.56
1764751199.744826,1.53
1764751199.7510211,1.57
1764751199.757303,1.53
1764751199.7636101,1.53
1764751199.769804,1.57
1764751199.776107,1.53
1764751199.7824142,1.55
1764751199.788565,1.55
1764751199.794781,1.52
1764751199.8009531,1.58
1764751199.8072908,1.54
1764751199.813675,1.52
1764751199.81978,1.58
1764751199.825957,1.54
1764751199.832494,1.56
1764751199.838516,1.55
1764751199.84465,1.53
1764751199.850967,1.59
1764751199.8572228,1.55
1764751199.8636339,1.54
1764751199.869715,1.59
1764751199.875978,1.53
1764751199.8821912,1.57
1764751199.888414,1.57
1764751199.894669,1.55
1764751199.900939,1.61
1764751199.9072242,1.56
1764751199.9137769,1.55
1764751199.919627,1.59
1764751199.9259782,1.56
1764751199.932244,1.64
1764751199.938454,1.7
1764751199.944823,1.68
1764751199.950918,1.73
1764751199.9572768,1.73
1764751199.963616,1.72
1764751199.9696991,1.71
1764751199.975969,1.61
1764751199.982295,1.65
1764751199.9884338,1.64
1764751199.9946811,1.52
1764751200.00225,1.55
1764751200.007303,1.54
1764751200.014121,1.53
1764751200.019646,1.55
1764751200.0259898,1.52
1764751200.03223,1.55
1764751200.038392,1.55
1764751200.044747,1.52
1764751200.0509381,1.58
1764751200.0573518,1.56
1764751200.064095,1.55
1764751200.0696058,1.58
1764751200.076072,1.52
1764751200.082217,1.58
1764751200.0884109,1.72
1764751200.094646,2.02
1764751200.100945,2.68
1764751200.107191,2.98
1764751200.1137369,2.68
1764751200.1430101,1.94
1764751200.189007,1.12
1764751200.189088,1.35
1764751200.189153,1.66
1764751200.1920042,1.56
1764751200.192127,1.55
1764751200.192248,1.54
1764751200.192663,1.54
1764751200.1927848,1.57
1764751200.193006,1.52
1764751200.193181,1.55
1764751200.193299,1.57
1764751200.203137,1.54
1764751200.2037172,1.59
1764751200.207252,1.58
1764751200.213428,1.56
1764751200.219913,1.58
1764751200.2258859,1.55
1764751200.232129,1.62
1764751200.238391,1.63
1764751200.244738,1.57
1764751200.2510269,1.63
1764751200.257164,1.62
1764751200.263849,1.62
1764751200.269581,1.67
1764751200.275863,1.61
1764751200.2820742,1.66
1764751200.288329,1.71
1764751200.294603,1.64
1764751200.300801,1.71
1764751200.3071518,1.71
1764751200.31347,1.71
1764751200.319577,1.76
1764751200.325841,1.74
1764751200.332169,1.76
1764751200.338409,1.77
1764751200.344727,1.74
1764751200.3508449,1.78
1764751200.3571808,1.76
1764751200.363598,1.75
1764751200.3695512,1.79
1764751200.375871,1.73
1764751200.38215,1.71
1764751200.388437,1.69
1764751200.394629,1.63
1764751200.4008808,1.65
1764751200.4071329,1.59
1764751200.413462,1.55
1764751200.419571,1.59
1764751200.425795,1.53
1764751200.4321,1.55
1764751200.438307,1.55
1764751200.444549,1.51
1764751200.4507918,1.56
1764751200.457025,1.52
1764751200.463783,1.53
1764751200.469544,1.58
1764751200.475807,1.51
1764751200.482059,1.56
1764751200.4883468,1.57
1764751200.494668,1.52
1764751200.501038,1.58
1764751200.507144,1.57
1764751200.513414,1.56
1764751200.519635,1.6
1764751200.525999,1.56
1764751200.532063,1.59
1764751200.538398,1.58
1764751200.544677,1.53
1764751200.550772,1.61
1764751200.557111,1.58
1764751200.564322,1.55
1764751200.5695229,1.59
1764751200.575752,1.55
1764751200.58205,1.59
1764751200.588564,1.59
1764751200.5946088,1.55
1764751200.600828,1.58
1764751200.607137,1.55
1764751200.6135108,1.55
1764751200.619566,1.59
1764751200.625807,1.53
1764751200.6321611,1.55
1764751200.638387,1.59
1764751200.644544,1.53
1764751200.6508522,1.58
1764751200.6570969,1.56
1764751200.663815,1.55
1764751200.669626,1.59
1764751200.6763022,1.55
1764751200.6820931,1.56
1764751200.688395,1.57
1764751200.695054,1.54
1764751200.7008698,1.59
1764751200.707032,1.57
1764751200.7135391,1.55
1764751200.719607,1.59
1764751200.7258592,1.57
1764751200.7323442,1.66
1764751200.738351,1.71
1764751200.744565,1.64
1764751200.750947,1.74
1764751200.757112,1.74
1764751200.763434,1.68
1764751200.769618,1.65
1764751200.7757351,1.6
1764751200.782024,1.65
1764751200.788324,1.59
1764751200.794625,1.49
1764751200.80083,1.55
1764751200.8070111,1.54
1764751200.8136032,1.51
1764751200.819625,1.54
1764751200.825755,1.52
1764751200.83203,1.54
1764751200.838353,1.57
1764751200.8444722,1.52
1764751200.850788,1.56
1764751200.8569868,1.55
1764751200.86337,1.53
1764751200.8695302,1.57
1764751200.8757398,1.52
1764751200.8820312,1.64
1764751200.8883772,1.87
1764751200.894484,2.36
1764751200.900754,2.98
1764751200.907031,2.9
1764751200.913406,2.32
1764751200.919539,1.45
1764751200.925698,1.18
1764751200.9320278,1.53
1764751200.938217,1.62
1764751200.944551,1.52
1764751200.950788,1.56
1764751200.957076,1.53
1764751200.963329,1.51
1764751200.969436,1.58
1764751200.975708,1.53
1764751200.9821188,1.54
1764751200.988245,1.56
1764751200.994473,1.52
1764751201.000849,1.57
1764751201.00707,1.56
1764751201.013346,1.56
1764751201.019506,1.6
1764751201.0257869,1.56
1764751201.0320032,1.59
1764751201.0382469,1.62
1764751201.044537,1.57
1764751201.050789,1.6
1764751201.05693,1.61
1764751201.0632849,1.6
1764751201.0694542,1.66
1764751201.075721,1.62
1764751201.082047,1.64
1764751201.088196,1.67
1764751201.0945039,1.63
1764751201.100724,1.7
1764751201.106951,1.7
1764751201.113463,1.7
1764751201.1194408,1.75
1764751201.125642,1.71
1764751201.131996,1.74
1764751201.138229,1.76
1764751201.144484,1.72
1764751201.150769,1.76
1764751201.156981,1.75
1764751201.163344,1.71
1764751201.169457,1.75
1764751201.175654,1.67
1764751201.181925,1.66
1764751201.1882298,1.66
1764751201.194417,1.59
1764751201.2007391,1.62
1764751201.206953,1.57
1764751201.2135,1.53
1764751201.219389,1.57
1764751201.225685,1.53
1764751201.2319648,1.52
1764751201.238261,1.54
1764751201.244531,1.51
1764751201.250728,1.54
1764751201.257107,1.52
1764751201.2631931,1.52
1764751201.269472,1.56
1764751201.275682,1.52
1764751201.282072,1.54
1764751201.28827,1.58
1764751201.294555,1.53
1764751201.300701,1.58
1764751201.306964,1.56
1764751201.3133209,1.55
1764751201.319415,1.6
1764751201.3256419,1.54
1764751201.331949,1.57
1764751201.338163,1.6
1764751201.3444679,1.54
1764751201.3508108,1.58
1764751201.356977,1.57
1764751201.363287,1.54
1764751201.369502,1.59
1764751201.375645,1.54
1764751201.38199,1.56
1764751201.388205,1.57
1764751201.394634,1.53
1764751201.400641,1.57
1764751201.406977,1.54
1764751201.413516,1.53
1764751201.41944,1.59
1764751201.425699,1.53
1764751201.431987,1.54
1764751201.438208,1.58
1764751201.44446,1.53
1764751201.4506052,1.57
1764751201.456893,1.55
1764751201.463358,1.54
1764751201.469424,1.6
1764751201.475649,1.54
1764751201.481875,1.56
1764751201.48814,1.58
1764751201.494532,1.52
1764751201.50094,1.59
1764751201.507157,1.57
1764751201.51322,1.57
1764751201.5193548,1.69
1764751201.525606,1.67
1764751201.531904,1.67
1764751201.538167,1.74
1764751201.544383,1.73
1764751201.550674,1.71
1764751201.556823,1.63
1764751201.56378,1.6
1764751201.569389,1.67
1764751201.575659,1.56
1764751201.5818949,1.5
1764751201.5882492,1.52
1764751201.594421,1.51
1764751201.6006668,1.54
1764751201.606962,1.51
1764751201.613258,1.49
1764751201.620045,1.55
1764751201.629211,1.51
1764751201.6496809,1.52
1764751201.6530921,1.54
1764751201.6532512,1.51
1764751201.685802,1.56
1764751201.699588,1.54
1764751201.702795,1.5
1764751201.703129,1.61
1764751201.703308,1.77
1764751201.703705,2.26
1764751201.705559,2.88
1764751201.706017,2.84
1764751201.7064,2.45
1764751201.7074602,1.5
1764751201.713207,1.07
1764751201.7233868,1.53
1764751201.726382,1.64
1764751201.732139,1.54
1764751201.7382212,1.52
1764751201.74443,1.51
1764751201.7508411,1.53
1764751201.756959,1.51
1764751201.7637749,1.5
1764751201.769341,1.56
1764751201.7756832,1.52
1764751201.781952,1.53
1764751201.788082,1.57
1764751201.794443,1.52
1764751201.800606,1.57
1764751201.806868,1.57
1764751201.813142,1.55
1764751201.819328,1.6
1764751201.825598,1.57
1764751201.83185,1.57
1764751201.8381262,1.59
1764751201.8445382,1.57
1764751201.8505569,1.63
1764751201.856877,1.64
1764751201.863335,1.6
1764751201.869349,1.67
1764751201.875927,1.65
1764751201.881824,1.68
1764751201.888151,1.73
1764751201.8946419,1.67
1764751201.900597,1.74
1764751201.906867,1.74
1764751201.913326,1.73
1764751201.919335,1.78
1764751201.925657,1.76
1764751201.931807,1.75
1764751201.938194,1.79
1764751201.944412,1.74
1764751201.9505532,1.78
1764751201.956792,1.74
1764751201.963255,1.69
1764751201.969264,1.7
1764751201.9755561,1.63
1764751201.981924,1.6
1764751201.9881349,1.6
1764751201.994577,1.53
1764751202.000598,1.54
1764751202.006895,1.52
1764751202.013243,1.5
1764751202.019302,1.53
1764751202.025662,1.49
1764751202.031858,1.51
1764751202.038096,1.53
1764751202.044318,1.49
1764751202.050536,1.51
1764751202.056902,1.51
1764751202.063551,1.5
1764751202.0694358,1.55
1764751202.075876,1.52
1764751202.0818582,1.53
1764751202.088022,1.57
1764751202.09443,1.52
1764751202.100495,1.55
1764751202.106865,1.55
1764751202.1132128,1.53
1764751202.119298,1.58
1764751202.125538,1.54
1764751202.1318688,1.55
1764751202.138067,1.58
1764751202.144355,1.52
1764751202.1505558,1.55
1764751202.1573079,1.55
1764751202.163059,1.52
1764751202.169298,1.56
1764751202.175655,1.52
1764751202.181709,1.53
1764751202.187996,1.55
1764751202.194216,1.51
1764751202.200408,1.55
1764751202.2067661,1.54
1764751202.213084,1.5
1764751202.21926,1.55
1764751202.225554,1.52
1764751202.231734,1.52
1764751202.2380311,1.54
1764751202.2442172,1.5
1764751202.2505012,1.54
1764751202.2568178,1.53
1764751202.2630248,1.5
1764751202.269315,1.57
1764751202.2758248,1.52
1764751202.281782,1.52
1764751202.2879932,1.56
1764751202.294253,1.51
1764751202.3004858,1.53
1764751202.306746,1.54
1764751202.313178,1.52
1764751202.319238,1.56
1764751202.325459,1.55
1764751202.33166,1.64
1764751202.338042,1.7
1764751202.34434,1.64
1764751202.350469,1.72
1764751202.3567219,1.74
1764751202.3631308,1.65
1764751202.369204,1.64
1764751202.375537,1.6
1764751202.381848,1.62
1764751202.38798,1.57
1764751202.3942668,1.46
1764751202.4004018,1.52
1764751202.406778,1.53
1764751202.413188,1.47
1764751202.41921,1.5
1764751202.425548,1.5
1764751202.43185,1.51
1764751202.437938,1.53
1764751202.4442291,1.48
1764751202.450468,1.52
1764751202.4567838,1.53
1764751202.463084,1.51
1764751202.469237,1.55
1764751202.475528,1.51
1764751202.481691,1.56
1764751202.4880278,1.79
1764751202.4943428,2.22
1764751202.5004811,2.84
1764751202.506628,2.86
1764751202.513199,2.32
1764751202.519209,1.37
1764751202.52554,1.08
1764751202.53168,1.53
1764751202.537936,1.71
1764751202.544225,1.49
1764751202.550472,1.49
1764751202.5566568,1.54
1764751202.5630221,1.5
1764751202.5692,1.54
1764751202.57565,1.51
1764751202.581707,1.52
1764751202.588038,1.56
1764751202.594215,1.51
1764751202.6003578,1.55
1764751202.606605,1.56
1764751202.6130402,1.55
1764751202.619325,1.58
1764751202.6253839,1.56
1764751202.631714,1.57
1764751202.637904,1.61
1764751202.644274,1.56
1764751202.650468,1.59
1764751202.6566951,1.6
1764751202.662924,1.59
1764751202.669285,1.66
1764751202.675463,1.62
1764751202.6818078,1.63
1764751202.687917,1.7
1764751202.694221,1.66
1764751202.7004101,1.7
1764751202.7066398,1.73
1764751202.713129,1.7
1764751202.7191281,1.75
1764751202.725434,1.75
1764751202.7316759,1.76
1764751202.7378838,1.8
1764751202.744291,1.74
1764751202.750407,1.78
1764751202.756713,1.79
1764751202.762998,1.75
1764751202.76928,1.76
1764751202.775506,1.71
1764751202.7818592,1.68
1764751202.787925,1.68
1764751202.7942579,1.59
1764751202.800436,1.6
1764751202.80674,1.6
1764751202.8130088,1.52
1764751202.819137,1.56
1764751202.825453,1.51
1764751202.831574,1.52
1764751202.837884,1.54
1764751202.8441448,1.49
1764751202.8505359,1.52
1764751202.85676,1.53
1764751202.863153,1.51
1764751202.8693209,1.56
1764751202.875446,1.53
1764751202.881661,1.52
1764751202.8878632,1.56
1764751202.894096,1.53
1764751202.90033,1.56
1764751202.906611,1.55
1764751202.91302,1.52
1764751202.9191911,1.58
1764751202.9255838,1.55
1764751202.931596,1.54
1764751202.938018,1.59
1764751202.944202,1.54
1764751202.950331,1.56
1764751202.9565592,1.56
1764751202.962943,1.52
1764751202.969047,1.59
1764751202.9755461,1.55
1764751202.981657,1.55
1764751202.9878778,1.58
1764751202.9940732,1.53
1764751203.000434,1.56
1764751203.00654,1.56
1764751203.012949,1.52
1764751203.019152,1.58
1764751203.025488,1.58
1764751203.031646,1.53
1764751203.037879,1.55
1764751203.044255,1.52
1764751203.050393,1.56
1764751203.056603,1.56
1764751203.062919,1.52
1764751203.069199,1.58
1764751203.07536,1.55
1764751203.081548,1.54
1764751203.0879538,1.57
1764751203.094217,1.52
1764751203.1004128,1.57
1764751203.106538,1.58
1764751203.1128829,1.52
1764751203.119107,1.58
1764751203.1254458,1.55
1764751203.131535,1.53
1764751203.137917,1.58
1764751203.144125,1.54
1764751203.150325,1.57
1764751203.156514,1.57
1764751203.162903,1.53
1764751203.16907,1.59
1764751203.175369,1.55
1764751203.181557,1.58
1764751203.1878662,1.71
1764751203.194293,1.68
1764751203.200295,1.71
1764751203.206544,1.74
1764751203.212883,1.68
1764751203.2191172,1.69
1764751203.225392,1.63
1764751203.231561,1.63
1764751203.2377758,1.64
1764751203.2441049,1.5
1764751203.250328,1.52
1764751203.2566578,1.57
1764751203.262943,1.5
1764751203.269206,1.52
1764751203.275417,1.52
1764751203.2818172,1.53
1764751203.2879732,1.54
1764751203.294156,1.49
1764751203.3003252,1.53
1764751203.306543,1.56
1764751203.317316,1.52
1764751203.333761,1.56
1764751203.3441799,1.53
1764751203.344325,1.55
1764751203.352297,1.7
1764751203.3886132,1.94
1764751203.39057,2.58
1764751203.3908951,3.0
1764751203.3911412,2.71
1764751203.3913631,1.96
1764751203.3915782,1.12
1764751203.391705,1.29
1764751203.391822,1.65
1764751203.394176,1.57
1764751203.4002502,1.52
1764751203.4070249,1.53
1764751203.413224,1.52
1764751203.41971,1.56
1764751203.4253361,1.52
1764751203.431668,1.52
1764751203.4378781,1.58
1764751203.443987,1.52
1764751203.4502919,1.52
1764751203.456525,1.56
1764751203.462951,1.54
1764751203.469027,1.6
1764751203.475334,1.53
1764751203.4815738,1.55
1764751203.4878001,1.61
1764751203.4942,1.57
1764751203.500265,1.59
1764751203.506645,1.6
1764751203.513035,1.57
1764751203.518946,1.63
1764751203.525312,1.63
1764751203.531564,1.62
1764751203.537768,1.65
1764751203.544186,1.64
1764751203.550287,1.68
1764751203.556525,1.69
1764751203.562729,1.67
1764751203.569037,1.73
1764751203.5752661,1.72
1764751203.581574,1.72
1764751203.587738,1.75
1764751203.594089,1.72
1764751203.600333,1.76
1764751203.606465,1.77
1764751203.6128159,1.73
1764751203.618995,1.76
1764751203.6252759,1.71
1764751203.6316118,1.68
1764751203.637779,1.7
1764751203.644963,1.61
1764751203.65033,1.6
1764751203.656505,1.59
1764751203.662925,1.52
1764751203.6690931,1.56
1764751203.675306,1.53
1764751203.681461,1.52
1764751203.687745,1.53
1764751203.694092,1.48
1764751203.700295,1.53
1764751203.70654,1.52
1764751203.71298,1.48
1764751203.718984,1.53
1764751203.7253702,1.51
1764751203.731483,1.52
1764751203.737891,1.57
1764751203.745198,1.51
1764751203.750286,1.53
1764751203.756518,1.55
1764751203.7629042,1.52
1764751203.768919,1.56
1764751203.77526,1.52
1764751203.781566,1.53
1764751203.7878559,1.59
1764751203.7945101,1.52
1764751203.800255,1.55
1764751203.8065019,1.57
1764751203.8127081,1.52
1764751203.818955,1.56
1764751203.825231,1.54
1764751203.8314009,1.52
1764751203.8376892,1.56
1764751203.844424,1.51
1764751203.85024,1.54
1764751203.856512,1.56
1764751203.862667,1.5
1764751203.868939,1.54
1764751203.875257,1.52
1764751203.8814132,1.5
1764751203.887754,1.55
1764751203.894367,1.51
1764751203.900531,1.54
1764751203.9064908,1.55
1764751203.912999,1.5
1764751203.919017,1.55
1764751203.925372,1.54
1764751203.9315982,1.51
1764751203.937695,1.56
1764751203.94424,1.52
1764751203.950189,1.53
1764751203.956464,1.55
1764751203.962676,1.52
1764751203.9689019,1.58
1764751203.97537,1.62
1764751203.981489,1.64
1764751203.9877079,1.67
1764751203.9939358,1.67
1764751204.0001879,1.73
1764751204.006436,1.71
1764751204.0127192,1.61
1764751204.0190332,1.63
1764751204.025281,1.65
1764751204.031478,1.58
1764751204.037735,1.56
1764751204.0441852,1.48
1764751204.050242,1.53
1764751204.05648,1.53
1764751204.0626729,1.46
1764751204.0689468,1.53
1764751204.075522,1.53
1764751204.0814872,1.5
1764751204.0876281,1.54
1764751204.094476,1.52
1764751204.100188,1.54
1764751204.106482,1.54
1764751204.112833,1.5
1764751204.1189702,1.54
1764751204.125317,1.57
1764751204.131444,1.69
1764751204.137642,2.12
1764751204.144466,2.71
1764751204.150217,2.96
1764751204.156684,2.67
1764751204.162765,1.74
1764751204.1692328,1.16
1764751204.175307,1.39
1764751204.1816251,1.55
1764751204.187807,1.56
1764751204.1944141,1.5
1764751204.200186,1.52
1764751204.206458,1.52
1764751204.212641,1.49
1764751204.2189429,1.54
1764751204.2254999,1.52
1764751204.231356,1.51
1764751204.237708,1.56
1764751204.2442508,1.52
1764751204.250087,1.55
1764751204.2564118,1.57
1764751204.262636,1.53
1764751204.2688901,1.59
1764751204.275229,1.57
1764751204.281339,1.57
1764751204.287679,1.63
1764751204.293974,1.56
1764751204.300139,1.58
1764751204.3065221,1.62
1764751204.3126779,1.59
1764751204.319019,1.64
1764751204.325314,1.64
1764751204.331381,1.63
1764751204.337573,1.68
1764751204.343957,1.66
1764751204.3500988,1.7
1764751204.356407,1.73
1764751204.362677,1.69
1764751204.368938,1.75
1764751204.375455,1.74
1764751204.381504,1.72
1764751204.3876648,1.76
1764751204.3940852,1.73
1764751204.400186,1.75
1764751204.4064372,1.76
1764751204.412916,1.7
1764751204.418901,1.73
1764751204.425525,1.69
1764751204.4313521,1.64
1764751204.437654,1.65
1764751204.4444711,1.58
1764751204.4502559,1.58
1764751204.4564428,1.59
1764751204.462741,1.52
1764751204.46885,1.54
1764751204.475311,1.53
1764751204.481287,1.52
1764751204.487655,1.56
1764751204.493939,1.5
1764751204.500107,1.52
1764751204.506314,1.56
1764751204.5125902,1.52
1764751204.518912,1.55
1764751204.525116,1.55
1764751204.531397,1.52
1764751204.537606,1.58
1764751204.543923,1.55
1764751204.550085,1.56
1764751204.556326,1.58
1764751204.562688,1.54
1764751204.568854,1.57
1764751204.5750852,1.56
1764751204.5813272,1.54
1764751204.587737,1.59
1764751204.5942888,1.54
1764751204.60023,1.57
1764751204.606404,1.58
1764751204.6126678,1.53
1764751204.6190531,1.57
1764751204.625273,1.56
1764751204.631409,1.54
1764751204.637592,1.58
1764751204.645022,1.52
1764751204.65009,1.55
1764751204.656311,1.58
1764751204.662543,1.52
1764751204.668792,1.57
1764751204.675148,1.55
1764751204.681366,1.53
1764751204.687621,1.59
1764751204.69411,1.53
1764751204.700085,1.55
1764751204.706401,1.58
1764751204.712586,1.53
1764751204.718863,1.57
1764751204.725174,1.55
1764751204.731329,1.53
1764751204.737556,1.59
1764751204.743972,1.54
1764751204.750119,1.55
1764751204.756403,1.59
1764751204.762787,1.55
1764751204.768878,1.62
1764751204.7751439,1.68
1764751204.7813041,1.69
1764751204.787606,1.74
1764751204.794338,1.72
1764751204.800101,1.72
1764751204.806337,1.72
1764751204.8125381,1.62
1764751204.8188381,1.65
1764751204.825147,1.64
1764751204.8312829,1.52
1764751204.837523,1.54
1764751204.844172,1.52
1764751204.850029,1.52
1764751204.856349,1.54
1764751204.862607,1.5
1764751204.868709,1.55
1764751204.875268,1.53
1764751204.8812768,1.51
1764751204.887543,1.55
1764751204.894166,1.52
1764751204.900038,1.54
1764751204.9064791,1.56
1764751204.912628,1.51
1764751204.91874,1.55
1764751204.9252439,1.61
1764751204.93134,1.8
1764751204.938368,2.39
1764751204.9519832,2.92
1764751204.959719,2.85
1764751204.9661179,2.37
1764751204.9685628,1.35
1764751205.0160441,1.15
1764751205.0199208,1.57
1764751205.020385,1.63
1764751205.0207622,1.58
1764751205.020889,1.5
1764751205.021007,1.52
1764751205.02113,1.55
1764751205.021251,1.52
1764751205.021337,1.54
1764751205.025187,1.54
1764751205.035666,1.53
1764751205.043217,1.58
1764751205.043852,1.54
1764751205.0499609,1.55
1764751205.0563278,1.58
1764751205.0625489,1.54
1764751205.068855,1.59
1764751205.075341,1.6
1764751205.08126,1.57
1764751205.087588,1.62
1764751205.093863,1.58
1764751205.1000881,1.6
1764751205.106227,1.64
1764751205.112532,1.6
1764751205.11868,1.65
1764751205.1250381,1.66
1764751205.131263,1.65
1764751205.137611,1.71
1764751205.144105,1.68
1764751205.150017,1.72
1764751205.156218,1.76
1764751205.162494,1.7
1764751205.168771,1.76
1764751205.175008,1.77
1764751205.181248,1.74
1764751205.187448,1.79
1764751205.193845,1.76
1764751205.199905,1.77
1764751205.206264,1.78
1764751205.212451,1.72
1764751205.2187781,1.73
1764751205.2250051,1.68
1764751205.2312262,1.61
1764751205.237488,1.63
1764751205.244321,1.57
1764751205.250002,1.54
1764751205.256216,1.56
1764751205.2624261,1.51
1764751205.268838,1.54
1764751205.274979,1.52
1764751205.2812648,1.49
1764751205.28752,1.54
1764751205.294114,1.51
1764751205.299974,1.51
1764751205.306326,1.54
1764751205.312386,1.5
1764751205.3187578,1.53
1764751205.325032,1.53
1764751205.331268,1.52
1764751205.337421,1.58
1764751205.343969,1.54
1764751205.350003,1.53
1764751205.3562298,1.57
1764751205.362444,1.54
1764751205.368717,1.57
1764751205.374946,1.56
1764751205.381207,1.53
1764751205.387425,1.58
1764751205.3937862,1.53
1764751205.399977,1.54
1764751205.406168,1.56
1764751205.412425,1.53
1764751205.418814,1.55
1764751205.424931,1.54
1764751205.431254,1.52
1764751205.437454,1.56
1764751205.443994,1.52
1764751205.449995,1.53
1764751205.456238,1.57
1764751205.462519,1.52
1764751205.468708,1.55
1764751205.47502,1.55
1764751205.4811862,1.52
1764751205.487402,1.57
1764751205.493736,1.52
1764751205.499897,1.53
1764751205.5061839,1.56
1764751205.512527,1.52
1764751205.5187562,1.56
1764751205.524961,1.55
1764751205.531178,1.52
1764751205.537486,1.58
1764751205.5441291,1.53
1764751205.549974,1.52
1764751205.556227,1.56
1764751205.562367,1.53
1764751205.56881,1.57
1764751205.57493,1.55
1764751205.581131,1.52
1764751205.587424,1.6
1764751205.59375,1.55
1764751205.599875,1.53
1764751205.606106,1.58
1764751205.6123688,1.54
1764751205.618709,1.57
1764751205.6248782,1.56
1764751205.631199,1.54
1764751205.637385,1.59
1764751205.643789,1.56
1764751205.64989,1.63
1764751205.656217,1.73
1764751205.662397,1.68
1764751205.6687849,1.73
1764751205.6750982,1.74
1764751205.681144,1.68
1764751205.687368,1.67
1764751205.693784,1.61
1764751205.699914,1.64
1764751205.7061582,1.61
1764751205.712476,1.48
1764751205.718699,1.52
1764751205.7249439,1.54
1764751205.7311502,1.5
1764751205.737437,1.53
1764751205.743655,1.52
1764751205.7499352,1.52
1764751205.756274,1.55
1764751205.762418,1.5
1764751205.768561,1.53
1764751205.774946,1.55
1764751205.781152,1.52
1764751205.7873979,1.56
1764751205.793715,1.52
1764751205.8000572,1.58
1764751205.80621,1.79
1764751205.812385,2.19
1764751205.818651,2.83
1764751205.824916,2.9
1764751205.8311849,2.41
1764751205.8374,1.48
1764751205.8437362,1.05
1764751205.849845,1.5
1764751205.856137,1.73
1764751205.862348,1.53
1764751205.868653,1.49
1764751205.874916,1.54
1764751205.88115,1.52
1764751205.887331,1.56
1764751205.8941739,1.52
1764751205.899894,1.54
1764751205.906123,1.58
1764751205.9123452,1.53
1764751205.918605,1.58
1764751205.92485,1.58
1764751205.93116,1.54
1764751205.937354,1.6
1764751205.943786,1.57
1764751205.949897,1.55
1764751205.956079,1.61
1764751205.9623191,1.57
1764751205.968714,1.59
1764751205.974847,1.62
1764751205.981167,1.61
1764751205.987412,1.65
1764751205.9936,1.63
1764751205.9999092,1.64
1764751206.006117,1.7
1764751206.012325,1.66
1764751206.01871,1.7
1764751206.024852,1.72
1764751206.031063,1.69
1764751206.037282,1.76
1764751206.043668,1.74
1764751206.049767,1.74
1764751206.056075,1.8
1764751206.062248,1.75
1764751206.0686028,1.78
1764751206.074912,1.79
1764751206.0810041,1.74
1764751206.0872881,1.76
1764751206.093529,1.73
1764751206.099906,1.7
1764751206.105998,1.7
1764751206.112349,1.6
1764751206.118481,1.59
1764751206.124755,1.58
1764751206.131045,1.52
1764751206.137279,1.54
1764751206.1435351,1.5
1764751206.14978,1.5
1764751206.1560042,1.52
1764751206.162248,1.48
1764751206.168567,1.51
1764751206.174968,1.52
1764751206.181046,1.49
1764751206.187258,1.53
1764751206.193616,1.51
1764751206.19976,1.52
1764751206.2060091,1.56
1764751206.212335,1.51
1764751206.2186189,1.55
1764751206.225024,1.57
1764751206.231019,1.51
1764751206.2372942,1.55
1764751206.243658,1.55
1764751206.249842,1.54
1764751206.256036,1.56
1764751206.262243,1.52
1764751206.268693,1.57
1764751206.275001,1.56
1764751206.281003,1.52
1764751206.2872908,1.57
1764751206.293685,1.53
1764751206.2997382,1.52
1764751206.3060591,1.56
1764751206.312742,1.52
1764751206.318602,1.55
1764751206.32476,1.55
1764751206.331085,1.52
1764751206.337507,1.57
1764751206.343603,1.53
1764751206.3498712,1.51
1764751206.356098,1.56
1764751206.362377,1.52
1764751206.368476,1.55
1764751206.374719,1.55
1764751206.380981,1.5
1764751206.387274,1.56
1764751206.393662,1.54
1764751206.39974,1.53
1764751206.406048,1.55
1764751206.412239,1.52
1764751206.418549,1.55
1764751206.424896,1.55
1764751206.4310951,1.52
1764751206.437214,1.56
1764751206.4436538,1.53
1764751206.464137,1.53
1764751206.464426,1.57
1764751206.467583,1.53
1764751206.4685361,1.56
1764751206.4893692,1.56
1764751206.489522,1.52
1764751206.489658,1.58
1764751206.513052,1.55
1764751206.516191,1.53
1764751206.533889,1.63
1764751206.534152,1.65
1764751206.534284,1.68
1764751206.534425,1.68
1764751206.534573,1.7
1764751206.5373309,1.73
1764751206.544172,1.65
1764751206.5558321,1.61
1764751206.556232,1.68
1764751206.562312,1.6
1764751206.5686982,1.53
1764751206.574826,1.52
1764751206.5810518,1.51
1764751206.587564,1.55
1764751206.593757,1.51
1764751206.599841,1.5
1764751206.6060748,1.56
1764751206.612195,1.52
1764751206.6184,1.55
1764751206.624668,1.55
1764751206.631058,1.51
1764751206.637203,1.56
1764751206.643553,1.52
1764751206.6497228,1.52
1764751206.6559622,1.59
1764751206.662108,1.66
1764751206.6684852,2.02
1764751206.674743,2.67
1764751206.681074,2.95
1764751206.687312,2.73
1764751206.693525,1.92
1764751206.699708,1.13
1764751206.706037,1.35
1764751206.712161,1.57
1764751206.718472,1.55
1764751206.7247849,1.52
1764751206.730957,1.49
1764751206.7372181,1.54
1764751206.743684,1.53
1764751206.749723,1.5
1764751206.755957,1.53
1764751206.762231,1.52
1764751206.768435,1.54
1764751206.774629,1.56
1764751206.781023,1.52
1764751206.7871182,1.55
1764751206.7934651,1.55
1764751206.7997189,1.55
1764751206.8059578,1.59
1764751206.812141,1.54
1764751206.8185432,1.58
1764751206.824651,1.6
1764751206.830868,1.58
1764751206.837193,1.62
1764751206.8434508,1.6
1764751206.8497531,1.59
1764751206.8558788,1.66
1764751206.8621619,1.63
1764751206.868456,1.66
1764751206.874641,1.68
1764751206.880998,1.66
1764751206.8871639,1.72
1764751206.893437,1.72
1764751206.899658,1.71
1764751206.905911,1.75
1764751206.912095,1.74
1764751206.9184132,1.75
1764751206.924702,1.74
1764751206.930829,1.71
1764751206.9371269,1.78
1764751206.943371,1.74
1764751206.949752,1.71
1764751206.955876,1.73
1764751206.962111,1.65
1764751206.968402,1.64
1764751206.974715,1.65
1764751206.980865,1.55
1764751206.987095,1.57
1764751206.9933708,1.57
1764751206.999706,1.52
1764751207.0060391,1.54
1764751207.0120692,1.51
1764751207.0184891,1.52
1764751207.02464,1.54
1764751207.030873,1.5
1764751207.037075,1.56
1764751207.043412,1.52
1764751207.049671,1.52
1764751207.0559528,1.58
1764751207.0621,1.53
1764751207.068453,1.55
1764751207.0746,1.58
1764751207.0809972,1.52
1764751207.087056,1.58
1764751207.093386,1.56
1764751207.0996501,1.55
1764751207.105879,1.59
1764751207.1120949,1.54
1764751207.1185338,1.57
1764751207.124565,1.59
1764751207.130765,1.56
1764751207.137207,1.61
1764751207.1433501,1.56
1764751207.149615,1.53
1764751207.155822,1.59
1764751207.162103,1.55
1764751207.16841,1.57
1764751207.1747131,1.59
1764751207.1808472,1.53
1764751207.187094,1.58
1764751207.193435,1.57
1764751207.199708,1.53
1764751207.205836,1.57
1764751207.2120588,1.54
1764751207.218478,1.56
1764751207.224753,1.58
1764751207.230828,1.52
1764751207.237279,1.58
1764751207.243606,1.57
1764751207.2496471,1.55
1764751207.25595,1.6
1764751207.26209,1.55
1764751207.268343,1.57
1764751207.274595,1.59
1764751207.2808378,1.55
1764751207.287125,1.58
1764751207.2933388,1.56
1764751207.299647,1.54
1764751207.30593,1.59
1764751207.31208,1.56
1764751207.318298,1.59
1764751207.3246279,1.64
1764751207.330826,1.64
1764751207.337014,1.73
1764751207.343338,1.72
1764751207.349589,1.72
1764751207.355801,1.76
1764751207.361999,1.7
1764751207.368347,1.65
1764751207.3745558,1.64
1764751207.380828,1.62
1764751207.3870132,1.61
1764751207.3934011,1.52
1764751207.399574,1.5
1764751207.405786,1.58
1764751207.4120479,1.52
1764751207.418334,1.53
1764751207.424535,1.54
1764751207.4307451,1.5
1764751207.437032,1.56
1764751207.443375,1.55
1764751207.44958,1.54
1764751207.455866,1.59
1764751207.461972,1.54
1764751207.468388,1.53
1764751207.474506,1.54
1764751207.4807758,1.58
1764751207.486995,1.82
1764751207.4932969,2.28
1764751207.499584,2.87
1764751207.5059268,2.95
1764751207.511956,2.42
1764751207.518261,1.44
1764751207.524656,1.14
1764751207.5308218,1.49
1764751207.537014,1.66
1764751207.5433228,1.56
1764751207.54959,1.48
1764751207.555897,1.57
1764751207.5621161,1.54
1764751207.568445,1.52
1764751207.574501,1.55
1764751207.5808141,1.52
1764751207.586996,1.55
1764751207.5934489,1.55
1764751207.5996811,1.53
1764751207.605943,1.57
1764751207.6120472,1.54
1764751207.618264,1.56
1764751207.624537,1.58
1764751207.630721,1.55
1764751207.637067,1.6
1764751207.6432269,1.6
1764751207.6495922,1.58
1764751207.655793,1.63
1764751207.662026,1.6
1764751207.668272,1.63
