timestamp,ecg_value
1764746222.5380638,3.18
1764746222.544269,3.18
1764746222.550615,3.18
1764746222.5569448,3.18
1764746222.563169,3.18
1764746222.569396,3.18
1764746222.576671,3.18
1764746222.581644,2.46
1764746222.587929,0.19
1764746222.594214,0.65
1764746222.6004999,1.52
1764746222.607232,1.15
1764746222.61303,0.89
1764746222.619227,1.09
1764746222.6258821,1.15
1764746222.631665,1.08
1764746222.637934,1.08
1764746222.644199,1.11
1764746222.650369,1.12
1764746222.656744,1.11
1764746222.662981,1.12
1764746222.669148,1.13
1764746222.6762571,1.13
1764746222.681684,1.14
1764746222.687957,1.14
1764746222.695199,1.15
1764746222.700425,1.16
1764746222.7068539,1.1
1764746222.713013,1.09
1764746222.7191849,1.48
1764746222.7255192,1.09
1764746222.7316391,0.7
1764746222.7378979,0.95
1764746222.7442188,0.91
1764746222.7504551,0.97
1764746222.756809,1.06
1764746222.762893,1.01
1764746222.769114,1.04
1764746222.775715,0.97
1764746222.781638,0.93
1764746222.787874,1.06
1764746222.794206,1.03
1764746222.8004239,0.87
1764746222.806777,0.85
1764746222.825589,3.18
1764746222.834702,3.18
1764746222.841414,3.17
1764746222.847316,3.18
1764746222.853544,3.17
1764746222.8598871,3.17
1764746222.8659918,3.18
1764746222.872236,3.18
1764746222.878491,3.18
1764746222.884747,3.18
1764746222.891063,3.18
1764746222.8973281,3.18
1764746222.9410748,3.18
1764746222.947228,3.18
1764746222.981581,3.18
1764746222.987818,3.18
1764746222.9941802,3.18
1764746223.00036,3.18
1764746223.006777,3.18
1764746223.012903,3.18
1764746223.0191429,3.18
1764746223.0256052,3.18
1764746223.031564,3.18
1764746223.037825,3.18
1764746223.0441139,3.18
1764746223.0598269,3.18
1764746223.066028,3.18
1764746223.072314,3.18
1764746223.0785549,3.18
1764746223.084754,3.18
1764746223.0913658,3.17
1764746223.0972412,2.51
1764746223.1036959,0.66
1764746223.1098921,1.11
1764746223.116056,1.79
1764746223.1222332,1.48
1764746223.128673,1.27
1764746223.1348128,1.44
1764746223.141271,1.49
1764746223.147202,1.42
1764746223.153475,1.41
1764746223.159786,1.44
1764746223.166079,1.44
1764746223.572118,0.0
1764746223.5785542,0.0
1764746223.584666,0.0
1764746223.5911832,0.0
1764746223.597184,0.65
1764746223.603468,2.24
1764746223.609608,1.77
1764746223.615932,1.2
1764746223.622154,1.5
1764746223.628423,1.67
1764746223.6347039,1.53
1764746223.641207,1.49
1764746223.6471648,1.55
1764746223.653327,1.56
1764746223.659638,1.53
1764746223.6660008,1.54
1764746223.6723368,1.54
1764746223.6784482,1.54
1764746223.6846342,1.55
1764746223.6914508,1.54
1764746223.697172,1.54
1764746223.703398,1.54
1764746223.70961,1.53
1764746223.7159,1.55
1764746223.722108,1.55
1764746223.728389,1.54
1764746223.734643,1.55
1764746223.741069,1.28
1764746223.7470589,0.86
1764746223.753364,1.39
1764746223.7595809,1.23
1764746223.765891,0.85
1764746223.7721841,1.33
1764746223.778458,1.13
1764746223.784652,1.19
1764746223.791326,1.44
1764746223.797141,1.0
1764746223.803348,1.33
1764746223.8095639,1.65
1764746223.815841,1.71
1764746223.8221362,1.78
1764746223.828585,1.11
1764746223.834529,1.37
1764746223.840966,1.81
1764746223.847114,1.38
1764746223.85334,1.62
1764746223.859599,1.56
1764746223.865848,1.38
1764746223.8720698,1.73
1764746223.8783948,1.47
1764746223.884501,1.56
1764746223.8908548,1.7
1764746223.897111,1.34
1764746223.903263,1.59
1764746223.909557,1.5
1764746223.9158232,1.36
1764746223.9221509,1.69
1764746223.928365,1.3
1764746223.934579,1.27
1764746223.941036,1.42
1764746223.947099,1.09
1764746223.953345,1.42
1764746223.9597282,1.3
1764746223.965889,1.02
1764746223.9721332,1.37
1764746223.9783318,1.13
1764746223.984548,1.15
1764746223.990983,1.29
1764746223.997087,0.93
1764746224.003333,1.26
1764746224.009676,1.07
1764746224.0157828,0.77
1764746224.0221922,1.08
1764746224.02828,0.85
1764746224.072135,3.18
1764746224.078323,3.18
1764746224.0846038,3.18
1764746224.091071,3.18
1764746224.097065,3.18
1764746224.103273,3.18
1764746224.109612,3.16
1764746224.115765,1.79
1764746224.1220858,0.87
1764746224.128309,1.66
1764746224.134482,1.87
1764746224.1410508,1.51
1764746224.147077,1.5
1764746224.153331,1.63
1764746224.1596851,1.61
1764746224.1657448,1.56
1764746224.172111,1.58
1764746224.178323,1.59
1764746224.1844869,1.59
1764746224.190892,1.58
1764746224.19711,1.59
1764746224.203337,1.59
1764746224.209606,1.59
1764746224.215938,1.59
1764746224.222077,1.59
1764746224.2282722,1.59
1764746224.2345831,1.59
1764746224.2409432,1.52
1764746224.247079,1.54
1764746224.2533839,2.07
1764746224.259625,1.92
1764746224.2658272,1.23
1764746224.27212,1.22
1764746224.2783182,1.55
1764746224.284439,1.74
1764746224.290755,2.17
1764746224.2970738,2.91
1764746224.3033652,3.1
1764746224.309488,2.46
1764746224.315732,1.21
1764746224.3220348,0.95
1764746224.3285508,1.43
1764746224.334477,1.56
1764746224.3407419,1.34
1764746224.347012,1.27
1764746224.3532841,1.43
1764746224.359463,1.36
1764746224.365727,1.34
1764746224.371978,1.39
1764746224.378321,1.32
1764746224.3844538,1.54
1764746224.3912241,1.51
1764746224.397048,1.31
1764746224.403342,1.44
1764746224.409584,1.29
1764746224.415679,1.29
1764746224.422195,1.45
1764746224.428362,1.37
1764746224.4344351,1.44
1764746224.440751,1.5
1764746224.4470332,1.49
1764746224.453282,1.56
1764746224.459427,1.47
1764746224.4657102,1.53
1764746224.471957,1.57
1764746224.478265,1.44
1764746224.484473,1.64
1764746224.490863,1.64
1764746224.496971,1.5
1764746224.503198,1.61
1764746224.509553,1.57
1764746224.515732,1.58
1764746224.521882,1.64
1764746224.5298612,1.55
1764746224.5593758,1.61
1764746224.562707,1.58
1764746224.598857,1.56
1764746224.603233,1.61
1764746224.603356,1.5
1764746224.6034088,1.63
1764746224.603467,1.8
1764746224.6035168,1.63
1764746224.603563,1.54
1764746224.603636,1.3
1764746224.604109,1.32
1764746224.604228,1.54
1764746224.6095848,1.46
1764746224.617941,1.44
1764746224.62254,1.52
1764746224.628442,1.47
1764746224.634381,1.56
1764746224.640627,1.54
1764746224.6470048,1.52
1764746224.6532512,1.6
1764746224.659449,1.52
1764746224.665693,1.56
1764746224.671968,1.59
1764746224.678227,1.52
1764746224.68446,1.62
1764746224.690855,1.57
1764746224.696886,1.52
1764746224.70323,1.61
1764746224.709404,1.52
1764746224.7156842,1.56
1764746224.721897,1.61
1764746224.728322,1.51
1764746224.7343402,1.62
1764746224.740725,1.67
1764746224.746922,1.68
1764746224.7532392,1.74
1764746224.7594,1.75
1764746224.765804,1.88
1764746224.771931,1.84
1764746224.778135,1.63
1764746224.78448,1.7
1764746224.790723,1.67
1764746224.7969978,1.54
1764746224.803113,1.57
1764746224.809498,1.49
1764746224.8157492,1.49
1764746224.82198,1.49
1764746224.828117,1.46
1764746224.834392,1.58
1764746224.840663,1.49
1764746224.846863,1.4
1764746224.8530948,1.53
1764746224.85944,1.49
1764746224.865742,1.5
1764746224.871878,1.52
1764746224.8781,1.43
1764746224.884369,1.55
1764746224.890738,1.63
1764746224.8968399,2.1
1764746224.9031522,3.02
1764746224.909373,3.1
1764746224.915711,2.75
1764746224.921921,1.53
1764746224.9281201,0.86
1764746224.934422,1.47
1764746224.9407191,1.67
1764746224.9469,1.49
1764746224.953315,1.49
1764746224.959448,1.59
1764746224.96561,1.55
1764746224.971921,1.34
1764746224.978085,1.4
1764746224.984349,1.58
1764746224.990944,1.46
1764746224.996924,1.44
1764746225.003061,1.55
1764746225.009342,1.46
1764746225.0155652,1.51
1764746225.021863,1.53
1764746225.028128,1.5
1764746225.034326,1.63
1764746225.040648,1.58
1764746225.0467808,1.52
1764746225.0530949,1.57
1764746225.059347,1.49
1764746225.0656261,1.65
1764746225.071884,1.53
1764746225.078047,1.21
1764746225.0843241,1.27
1764746225.0908842,1.42
1764746225.096769,1.52
1764746225.103113,1.61
1764746225.1093068,1.49
1764746225.115585,1.58
1764746225.121834,1.62
1764746225.1280482,1.5
1764746225.1343381,1.57
1764746225.140651,1.55
1764746225.146833,1.51
1764746225.153044,1.59
1764746225.1593118,1.53
1764746225.1656342,1.54
1764746225.171872,1.52
1764746225.1781619,1.49
1764746225.184573,1.54
1764746225.190903,1.47
1764746225.196856,1.46
1764746225.203093,1.53
1764746225.209312,1.49
1764746225.215589,1.51
1764746225.221878,1.57
1764746225.228276,1.51
1764746225.2343261,1.58
1764746225.240553,1.59
1764746225.246826,1.61
1764746225.253087,1.71
1764746225.2592509,1.67
1764746225.265512,1.81
1764746225.2717812,1.92
1764746225.278065,1.81
1764746225.284235,1.96
1764746225.290914,1.93
1764746225.296813,1.93
1764746225.303092,2.08
1764746225.3093,2.0
1764746225.315638,1.99
1764746225.321803,1.85
1764746225.3280342,1.74
1764746225.3343449,2.17
1764746225.3406239,2.35
1764746225.346816,1.75
1764746225.352963,1.84
1764746225.359283,2.29
1764746225.365584,2.33
1764746225.3717551,1.75
1764746225.378077,1.78
1764746225.3843992,1.92
1764746225.390622,1.72
1764746225.396713,1.73
1764746225.4030988,1.8
1764746225.409347,1.62
1764746225.415532,1.6
1764746225.4217548,1.79
1764746225.4280682,1.6
1764746225.4343271,1.6
1764746225.440639,1.64
1764746225.4467661,1.67
1764746225.453017,1.59
1764746225.459269,1.6
1764746225.465489,1.77
1764746225.471712,1.67
1764746225.4780219,1.44
1764746225.4842439,1.59
1764746225.490558,1.87
1764746225.496707,2.14
1764746225.502984,2.56
1764746225.5092852,2.92
1764746225.515575,3.08
1764746225.521759,2.34
1764746225.52803,1.1
1764746225.534416,1.33
1764746225.540575,1.77
1764746225.5468109,1.63
1764746225.552945,1.44
1764746225.559291,1.39
1764746225.5655649,1.55
1764746225.571821,1.55
1764746225.578006,1.44
1764746225.584269,1.59
1764746225.590517,1.68
1764746225.5968451,1.79
1764746225.603041,1.65
1764746225.60929,1.4
1764746225.6156118,1.64
1764746225.621887,1.52
1764746225.628018,1.4
1764746225.634206,1.6
1764746225.6404638,1.54
1764746225.6467211,1.55
1764746225.652937,1.57
1764746225.659225,1.53
1764746225.665548,1.71
1764746225.671701,1.69
1764746225.677974,1.56
1764746225.684215,1.71
1764746225.690679,1.94
1764746225.696656,1.71
1764746225.703058,1.44
1764746225.7092328,1.47
1764746225.715445,1.75
1764746225.721685,1.7
1764746225.7279549,1.46
1764746225.734252,1.69
1764746225.740565,1.67
1764746225.746639,1.51
1764746225.75307,1.61
1764746225.759252,1.6
1764746225.7654989,1.65
1764746225.771764,1.69
1764746225.777931,1.68
1764746225.7842848,1.77
1764746225.790488,1.6
1764746225.796757,1.83
1764746225.802992,1.32
1764746225.809236,1.05
1764746225.8154721,1.6
1764746225.821858,1.68
1764746225.827929,1.37
1764746225.8342988,1.5
1764746225.840459,1.55
1764746225.846685,1.57
1764746225.853108,1.58
1764746225.859304,1.51
1764746225.865515,1.59
1764746225.871731,1.73
1764746225.8779898,1.71
1764746225.884226,1.61
1764746225.890492,1.53
1764746225.8966348,1.48
1764746225.902931,1.71
1764746225.909151,1.53
1764746225.915484,1.34
1764746225.921652,1.44
1764746225.927967,1.67
1764746225.934239,1.74
1764746225.940396,1.64
1764746225.946651,1.68
1764746225.95292,1.76
1764746225.9591029,2.06
1764746225.965427,2.12
1764746225.9716449,1.52
1764746225.9778612,1.4
1764746225.984264,1.82
1764746225.993408,1.68
1764746226.0052822,1.53
1764746226.012099,1.63
1764746226.0253491,1.49
1764746226.0444748,1.6
1764746226.045457,1.73
1764746226.0558321,1.45
1764746226.061356,1.42
1764746226.0614662,1.53
1764746226.061669,1.63
1764746226.061841,1.67
1764746226.061933,1.34
1764746226.065431,1.41
1764746226.07165,1.56
1764746226.078318,1.71
1764746226.084086,1.78
1764746226.0903628,1.87
1764746226.096669,2.8
1764746226.102836,3.16
1764746226.10909,3.09
1764746226.115411,1.74
1764746226.121718,0.66
1764746226.1279051,1.44
1764746226.134151,2.08
1764746226.1403918,1.46
1764746226.14677,1.15
1764746226.152864,1.45
1764746226.159047,1.57
1764746226.165335,1.5
1764746226.171605,1.41
1764746226.1778738,1.44
1764746226.184182,1.8
1764746226.1903648,1.54
1764746226.196834,1.27
1764746226.2028852,1.53
1764746226.209049,1.56
1764746226.215308,1.53
1764746226.221641,1.72
1764746226.2279198,1.63
1764746226.234287,1.3
1764746226.240509,1.35
1764746226.246706,1.65
1764746226.2528389,1.69
1764746226.259188,1.48
1764746226.265301,1.64
1764746226.271607,1.61
1764746226.277911,1.5
1764746226.284161,1.63
1764746226.290318,1.59
1764746226.2966468,1.63
1764746226.3028228,1.76
1764746226.309003,1.65
1764746226.315446,1.53
1764746226.3216152,1.59
1764746226.3278,1.59
1764746226.3341608,1.68
1764746226.340346,1.56
1764746226.346569,1.55
1764746226.352858,1.65
1764746226.358965,1.7
1764746226.365343,1.65
1764746226.371637,1.51
1764746226.377752,1.53
1764746226.3840861,1.65
1764746226.3905,1.51
1764746226.396645,1.56
1764746226.4028008,1.61
1764746226.409038,1.48
1764746226.4154592,1.6
1764746226.421813,1.6
1764746226.4278321,1.48
1764746226.4341161,1.61
1764746226.440301,1.65
1764746226.4465559,1.59
1764746226.4530041,1.61
1764746226.459154,1.6
1764746226.465258,1.53
1764746226.4715788,1.44
1764746226.477718,1.52
1764746226.4841201,1.62
1764746226.490277,1.51
1764746226.496544,1.53
1764746226.502781,1.59
1764746226.508994,1.48
1764746226.515291,1.55
1764746226.521771,1.68
1764746226.527811,1.7
1764746226.5340319,1.71
1764746226.540313,1.69
1764746226.546564,1.82
1764746226.552945,1.94
1764746226.5591092,1.81
1764746226.565383,1.61
1764746226.571764,1.53
1764746226.577802,1.5
1764746226.584075,1.52
1764746226.5903711,1.39
1764746226.596551,1.37
1764746226.602923,1.42
1764746226.609,1.38
1764746226.6152818,1.5
1764746226.6215959,1.5
1764746226.6277308,1.56
1764746226.634166,1.58
1764746226.640363,1.41
1764746226.6465652,1.35
1764746226.65277,1.37
1764746226.659177,1.32
1764746226.6652899,1.47
1764746226.671617,1.57
1764746226.677779,2.21
1764746226.684007,3.13
1764746226.6903172,3.07
1764746226.696511,2.37
1764746226.702773,1.14
1764746226.708976,1.0
1764746226.715279,1.96
1764746226.7217028,1.81
1764746226.727795,0.85
1764746226.73397,1.18
1764746226.740387,1.57
1764746226.746523,1.35
1764746226.752754,1.35
1764746226.758969,1.36
1764746226.765246,1.42
1764746226.771615,1.36
1764746226.7777889,1.37
1764746226.7840111,1.53
1764746226.790397,1.46
1764746226.796557,1.42
1764746226.802835,1.53
1764746226.8089678,1.52
1764746226.815186,1.72
1764746226.8216121,1.4
1764746226.827808,1.26
1764746226.8340008,1.54
1764746226.840266,1.56
1764746226.846483,1.51
1764746226.852729,1.53
1764746226.858919,1.49
1764746226.8651898,1.59
1764746226.87165,1.57
1764746226.8777049,1.5
1764746226.883936,1.59
1764746226.890201,1.68
1764746226.89646,1.84
1764746226.902713,1.66
1764746226.908902,1.26
1764746226.915147,1.36
1764746226.9215412,1.55
1764746226.9276521,1.53
1764746226.933992,1.59
1764746226.9401731,1.54
1764746226.9464152,1.52
1764746226.9527,1.62
1764746226.958909,1.55
1764746226.965176,1.6
1764746226.97151,1.55
1764746226.977748,1.5
1764746226.9839401,1.67
1764746226.990148,1.66
1764746226.996471,1.72
1764746227.0027251,1.83
1764746227.0089831,1.69
1764746227.015112,1.47
1764746227.021552,1.42
1764746227.027671,1.43
1764746227.0340009,1.57
1764746227.040179,1.54
1764746227.046489,1.54
1764746227.052734,1.64
1764746227.0588968,1.54
1764746227.06521,1.6
1764746227.07146,1.62
1764746227.0776398,1.58
1764746227.08387,1.72
1764746227.0901718,1.81
1764746227.096421,1.63
1764746227.102785,1.42
1764746227.108787,1.48
1764746227.1151512,1.77
1764746227.12149,1.73
1764746227.127636,1.7
1764746227.133858,1.91
1764746227.140109,1.8
1764746227.146398,1.67
1764746227.1527748,1.78
1764746227.1588259,1.65
1764746227.16512,1.6
1764746227.1714969,1.57
1764746227.177582,1.51
1764746227.184059,1.6
1764746227.190135,1.43
1764746227.196447,1.42
1764746227.20268,1.62
1764746227.2089448,1.63
1764746227.215128,1.5
1764746227.221652,1.32
1764746227.227625,1.4
1764746227.233909,1.73
1764746227.24018,1.61
1764746227.246434,1.29
1764746227.252675,1.47
1764746227.258913,1.94
1764746227.2651489,2.88
1764746227.271894,3.13
1764746227.2776692,2.91
1764746227.284032,2.16
1764746227.290255,0.9
1764746227.2964108,0.95
1764746227.302766,1.65
1764746227.308819,1.52
1764746227.315167,1.41
1764746227.32144,1.46
1764746227.32758,1.43
1764746227.333908,1.46
1764746227.340149,1.44
1764746227.346428,1.54
1764746227.3528168,1.79
1764746227.3588521,1.37
1764746227.365233,1.27
1764746227.371476,1.55
1764746227.377579,1.66
1764746227.3839948,1.55
1764746227.390215,1.24
1764746227.396387,1.31
1764746227.402665,1.57
1764746227.4088252,1.49
1764746227.415112,1.53
1764746227.4214709,1.59
1764746227.427658,1.57
1764746227.43412,1.67
1764746227.440184,1.56
1764746227.446372,1.65
1764746227.452679,1.85
1764746227.459125,1.5
1764746227.468051,1.43
1764746227.499357,1.55
1764746227.4999418,1.45
1764746227.500088,1.55
1764746227.500173,1.54
1764746227.5002508,1.54
1764746227.5032341,1.66
1764746227.5094101,1.56
1764746227.515855,1.61
1764746227.525902,1.61
1764746227.533341,1.55
1764746227.535143,1.74
1764746227.54033,1.72
1764746227.546367,1.53
1764746227.552557,1.57
1764746227.558801,1.7
1764746227.565026,1.69
1764746227.5715861,1.49
1764746227.57756,1.45
1764746227.583852,1.7
1764746227.5900218,1.56
1764746227.596267,1.52
1764746227.602734,1.67
1764746227.6088068,1.6
1764746227.615155,1.68
1764746227.621378,1.64
1764746227.6275399,1.55
1764746227.633725,1.73
1764746227.640058,1.72
1764746227.6462772,1.68
1764746227.65248,1.52
1764746227.658724,1.39
1764746227.66503,1.62
1764746227.6713579,1.72
1764746227.677585,1.54
1764746227.683808,1.59
1764746227.69003,1.71
1764746227.696287,1.72
1764746227.702535,1.69
1764746227.708789,1.67
1764746227.715018,1.86
1764746227.721361,1.86
1764746227.7275121,1.69
1764746227.733762,1.74
1764746227.740065,1.74
1764746227.746306,1.65
1764746227.752779,1.55
1764746227.758703,1.55
1764746227.76502,1.66
1764746227.771489,1.38
1764746227.7775738,1.29
1764746227.783809,1.54
1764746227.790024,1.47
1764746227.796253,1.43
1764746227.8026829,1.53
1764746227.808864,1.44
1764746227.815049,1.52
1764746227.821419,1.48
1764746227.8276238,1.38
1764746227.833884,1.55
1764746227.840069,1.69
1764746227.846317,2.36
1764746227.8526669,3.13
1764746227.858783,3.03
1764746227.865035,2.43
1764746227.871389,1.13
1764746227.877617,0.91
1764746227.883934,1.68
1764746227.890103,1.59
1764746227.896329,1.34
1764746227.902633,1.44
1764746227.908797,1.41
1764746227.915009,1.5
1764746227.921429,1.43
1764746227.9275599,1.34
1764746227.933697,1.48
1764746227.9400508,1.41
1764746227.946288,1.41
1764746227.952491,1.5
1764746227.958702,1.41
1764746227.965002,1.48
1764746227.971309,1.51
1764746227.9774752,1.45
1764746227.983725,1.6
1764746227.99002,1.51
1764746227.996191,1.52
1764746228.002493,1.55
1764746228.008749,1.52
1764746228.015043,1.7
1764746228.0215008,1.43
1764746228.02756,1.26
1764746228.033833,1.61
1764746228.040542,1.58
1764746228.046216,1.48
1764746228.052619,1.55
1764746228.0588548,1.45
1764746228.065077,1.52
1764746228.0712929,1.54
1764746228.077502,1.5
1764746228.083814,1.61
1764746228.089986,1.54
1764746228.096262,1.6
1764746228.102637,1.72
1764746228.1088378,1.62
1764746228.115045,1.44
1764746228.121252,1.47
1764746228.12747,1.55
1764746228.133777,1.58
1764746228.139955,1.47
1764746228.1461701,1.48
1764746228.152478,1.6
1764746228.158747,1.52
1764746228.164893,1.59
1764746228.1713128,1.59
1764746228.1774988,1.51
1764746228.183632,1.66
1764746228.189893,1.62
1764746228.196218,1.53
1764746228.2024,1.6
1764746228.208676,1.53
1764746228.214876,1.59
1764746228.2213252,1.56
1764746228.227463,1.49
1764746228.23364,1.64
1764746228.2399502,1.53
1764746228.246193,1.52
1764746228.252415,1.63
1764746228.258785,1.5
1764746228.265151,1.6
1764746228.2713249,1.68
1764746228.277418,1.62
1764746228.283764,1.74
1764746228.290005,1.75
1764746228.296235,1.8
1764746228.302592,1.81
1764746228.308665,1.63
1764746228.314989,1.73
1764746228.321457,1.63
1764746228.3274722,1.41
1764746228.333626,1.53
1764746228.339911,1.5
1764746228.3461351,1.46
1764746228.352427,1.48
1764746228.358745,1.4
1764746228.3649101,1.52
1764746228.3712409,1.48
1764746228.377413,1.4
1764746228.383649,1.56
1764746228.3899531,1.45
1764746228.3961668,1.47
1764746228.4024708,1.53
1764746228.408822,1.46
1764746228.414922,1.67
1764746228.421221,2.25
1764746228.4273658,3.0
1764746228.433621,3.13
1764746228.4398878,2.6
1764746228.446155,1.33
1764746228.452418,1.0
1764746228.4586508,1.43
1764746228.464855,1.66
1764746228.471425,1.43
1764746228.4774249,1.31
1764746228.4835682,1.55
1764746228.48989,1.5
1764746228.496186,1.44
1764746228.5024042,1.49
1764746228.508627,1.42
1764746228.51488,1.5
1764746228.52147,1.46
1764746228.527416,1.45
1764746228.53364,1.56
1764746228.539874,1.44
1764746228.5460658,1.53
1764746228.5524359,1.62
1764746228.55865,1.47
1764746228.564988,1.59
1764746228.5713549,1.6
1764746228.5773141,1.51
1764746228.5836642,1.63
1764746228.5898812,1.57
1764746228.5961878,1.59
1764746228.602345,1.69
1764746228.608586,1.6
1764746228.614827,1.65
1764746228.6210911,1.58
1764746228.627349,1.58
1764746228.633667,1.68
1764746228.639804,1.56
1764746228.6460512,1.67
1764746228.652333,1.72
1764746228.658616,1.56
1764746228.664788,1.67
1764746228.671205,1.7
1764746228.677409,1.61
1764746228.683525,1.66
1764746228.689758,1.62
1764746228.69604,1.74
1764746228.702338,1.76
1764746228.708679,1.75
1764746228.714724,1.97
1764746228.721181,1.95
1764746228.727375,1.87
1764746228.733574,1.98
1764746228.73974,1.88
1764746228.746099,1.86
1764746228.752334,1.86
1764746228.758674,1.82
1764746228.764852,1.94
1764746228.7710981,1.86
1764746228.7772238,1.81
1764746228.783554,1.96
1764746228.7897558,1.87
1764746228.7961018,1.88
1764746228.802437,1.88
1764746228.808589,1.72
1764746228.8148239,1.87
1764746228.821144,1.9
1764746228.827311,1.81
1764746228.8335822,1.94
1764746228.839782,1.88
1764746228.8460858,1.92
1764746228.85231,1.96
1764746228.858623,1.94
1764746228.864823,2.08
1764746228.8711932,2.06
1764746228.877289,1.87
1764746228.883523,1.98
1764746228.8898292,1.84
1764746228.896102,1.68
1764746228.90236,1.74
1764746228.908751,1.67
1764746228.914758,1.67
1764746228.9211059,1.6
1764746228.927364,1.54
1764746228.9334831,1.72
1764746228.949014,1.64
1764746228.967777,1.56
1764746228.967962,1.61
1764746228.97611,1.58
1764746228.995931,1.68
1764746229.008359,1.52
1764746229.011064,1.53
1764746229.0120802,1.82
1764746229.012149,2.13
1764746229.012201,2.9
1764746229.0122502,3.14
1764746229.012297,2.78
1764746229.017136,1.67
1764746229.020999,1.03
1764746229.028512,1.58
1764746229.0334542,1.96
1764746229.039745,1.6
1764746229.046047,1.49
1764746229.052329,1.62
1764746229.058725,1.48
1764746229.064749,1.56
1764746229.071145,1.61
1764746229.077249,1.53
1764746229.083512,1.6
1764746229.0898361,1.52
1764746229.095994,1.52
1764746229.102205,1.54
1764746229.108549,1.52
1764746229.114746,1.62
1764746229.120991,1.52
1764746229.127282,1.55
1764746229.133538,1.73
1764746229.139773,1.62
1764746229.1459641,1.58
1764746229.1522691,1.65
1764746229.158423,1.7
1764746229.1646988,1.8
1764746229.171007,1.62
1764746229.177184,1.65
1764746229.1834419,1.78
1764746229.189683,1.66
1764746229.195998,1.79
1764746229.202198,1.85
1764746229.2084422,1.66
1764746229.214696,1.71
1764746229.22097,1.84
1764746229.22722,1.85
1764746229.233522,1.87
1764746229.23976,1.85
1764746229.245962,1.98
1764746229.252209,2.04
1764746229.258442,1.97
1764746229.26466,2.14
1764746229.271261,2.1
1764746229.277201,2.02
1764746229.283551,2.13
1764746229.289772,2.06
1764746229.2959921,2.12
1764746229.302235,2.16
1764746229.308457,2.05
1764746229.31475,2.07
1764746229.3211799,1.96
1764746229.3272262,1.88
1764746229.333478,1.99
1764746229.3397179,1.9
1764746229.3460171,1.85
1764746229.352305,1.82
1764746229.358469,1.74
1764746229.3646421,1.95
1764746229.370993,1.92
1764746229.377225,1.88
1764746229.38345,1.97
1764746229.3896089,1.92
1764746229.395954,2.0
1764746229.402145,2.07
1764746229.408424,2.09
1764746229.414647,2.17
1764746229.420894,2.1
1764746229.4272058,2.21
1764746229.433422,2.22
1764746229.43964,1.95
1764746229.445948,2.15
1764746229.452204,2.11
1764746229.458484,1.76
1764746229.464583,1.82
1764746229.470926,1.78
1764746229.4772868,1.74
1764746229.48353,1.82
1764746229.489595,1.73
1764746229.49595,1.76
1764746229.502175,1.74
1764746229.508551,1.7
1764746229.514663,1.83
1764746229.520915,1.77
1764746229.527106,1.74
1764746229.533356,1.74
1764746229.539628,1.68
1764746229.545902,1.88
1764746229.55218,2.33
1764746229.558378,3.05
1764746229.564678,3.16
1764746229.570888,3.15
1764746229.5771232,2.22
1764746229.583485,1.15
1764746229.5896928,1.39
1764746229.5959349,1.75
1764746229.6021051,1.61
1764746229.608385,1.41
1764746229.614635,1.5
1764746229.620965,1.48
1764746229.6271439,1.46
1764746229.633439,1.54
1764746229.6397681,1.49
1764746229.645996,1.56
1764746229.652181,1.55
1764746229.65841,1.4
1764746229.664694,1.49
1764746229.670896,1.4
1764746229.677131,1.3
1764746229.683391,1.47
1764746229.689564,1.37
1764746229.695966,1.33
1764746229.702216,1.31
1764746229.7084281,1.3
1764746229.7147331,1.52
1764746229.72098,1.44
1764746229.727138,1.38
1764746229.73338,1.55
1764746229.739519,1.38
1764746229.745866,1.31
1764746229.752121,1.39
1764746229.758423,1.34
1764746229.764577,1.46
1764746229.770986,1.3
1764746229.777129,1.3
1764746229.78334,1.51
1764746229.789654,1.5
1764746229.795925,1.52
1764746229.802162,1.52
1764746229.8083682,1.42
1764746229.814616,1.48
1764746229.820936,1.34
1764746229.827039,1.33
1764746229.83329,1.46
1764746229.839626,1.36
1764746229.8458319,1.45
1764746229.852149,1.54
1764746229.85834,1.43
1764746229.864624,1.48
1764746229.8708422,1.44
1764746229.877134,1.43
1764746229.883401,1.63
1764746229.8895411,1.58
1764746229.895914,1.63
1764746229.90209,1.62
1764746229.908326,1.5
1764746229.914568,1.57
1764746229.921023,1.59
1764746229.927108,1.64
1764746229.9334059,1.7
1764746229.939731,1.57
1764746229.945827,1.63
1764746229.952061,1.72
1764746229.958344,1.61
1764746229.9646962,1.74
1764746229.970935,1.71
1764746229.9771671,1.76
1764746229.9833589,2.0
1764746229.9895291,1.88
1764746229.9958808,1.81
1764746230.002035,1.87
1764746230.008378,1.94
1764746230.014551,1.86
1764746230.020882,1.44
1764746230.027125,1.39
1764746230.0333922,1.6
1764746230.039575,1.47
1764746230.0457861,1.52
1764746230.052206,1.55
1764746230.058316,1.43
1764746230.064502,1.52
1764746230.070815,1.47
1764746230.0771022,1.47
1764746230.083362,1.62
1764746230.089497,1.5
1764746230.095774,1.57
1764746230.102027,1.53
1764746230.1082618,1.71
1764746230.114523,2.64
1764746230.120797,3.06
1764746230.127063,2.73
1764746230.133332,1.88
1764746230.139499,0.9
1764746230.145792,1.22
1764746230.1520011,1.64
1764746230.15825,1.41
1764746230.164556,1.57
1764746230.170795,1.41
1764746230.1770291,1.22
1764746230.183289,1.35
1764746230.189461,1.29
1764746230.195801,1.32
1764746230.2020538,1.44
1764746230.2083101,1.39
1764746230.214578,1.37
1764746230.220748,1.36
1764746230.2269812,1.48
1764746230.233384,1.62
1764746230.239545,1.57
1764746230.245864,1.57
1764746230.252047,1.55
1764746230.258365,1.66
1764746230.264695,1.52
1764746230.270972,1.12
1764746230.277029,1.39
1764746230.28332,1.71
1764746230.289523,1.52
1764746230.295733,1.56
1764746230.3020558,1.68
1764746230.308251,1.59
1764746230.3146188,1.7
1764746230.320744,1.67
1764746230.326956,1.63
1764746230.3331661,1.77
1764746230.339582,1.68
1764746230.3457868,1.65
1764746230.352129,1.67
1764746230.3582442,1.66
1764746230.3645,1.74
1764746230.3707662,1.68
1764746230.3769941,1.66
1764746230.383188,1.74
1764746230.389475,1.64
1764746230.395726,1.68
1764746230.4020228,1.72
1764746230.408551,1.68
1764746230.425768,1.76
1764746230.432498,1.69
1764746230.441867,1.7
1764746230.449446,1.81
1764746230.44963,1.71
1764746230.449773,1.75
1764746230.4661918,1.82
1764746230.466296,1.79
1764746230.4707358,1.79
1764746230.476109,1.68
1764746230.486121,1.65
1764746230.486552,1.76
1764746230.4893608,1.67
1764746230.495837,1.7
1764746230.502722,1.74
1764746230.508273,1.77
1764746230.5146198,1.9
1764746230.52068,1.77
1764746230.526876,1.84
1764746230.533163,2.16
1764746230.539436,2.03
1764746230.5456462,1.91
1764746230.551988,1.87
1764746230.55819,1.88
1764746230.564478,2.0
1764746230.570941,1.36
1764746230.589368,3.18
1764746230.7081559,3.18
1764746230.714416,3.18
1764746230.7206569,3.17
1764746230.726881,2.29
1764746230.73314,0.87
1764746230.739423,1.47
1764746230.745759,1.95
1764746230.751979,1.6
1764746230.758147,1.48
1764746230.764448,1.63
1764746230.770665,1.65
1764746230.776891,1.59
1764746230.783284,1.59
1764746230.7893891,1.61
1764746230.795597,1.61
1764746230.8019578,1.6
1764746230.808173,1.61
1764746230.8144221,1.61
1764746230.8207822,1.61
1764746230.826944,1.61
1764746230.8331,1.61
1764746230.8393312,1.6
1764746230.845587,1.61
1764746230.852272,1.6
1764746230.858189,1.61
1764746230.86431,1.61
1764746230.870659,1.61
1764746230.876943,1.65
1764746230.883191,1.71
1764746230.889416,1.57
1764746230.895614,1.57
1764746230.90199,1.64
1764746230.9081311,1.65
1764746230.914389,1.77
1764746230.920636,1.71
1764746230.926868,1.7
1764746230.933117,1.83
1764746230.939334,1.77
1764746230.945589,1.81
1764746230.9518888,1.81
1764746230.958113,1.8
1764746230.964319,1.91
1764746230.970506,1.79
1764746230.976834,1.89
1764746230.9832141,2.02
1764746230.9893901,1.85
1764746230.995552,2.03
1764746231.002047,2.16
1764746231.008131,1.96
1764746231.014276,1.96
1764746231.02051,2.0
1764746231.026761,2.04
1764746231.033026,2.01
1764746231.0393941,1.93
1764746231.0454788,2.13
1764746231.0519419,2.13
1764746231.058113,2.14
1764746231.064379,2.31
1764746231.0705411,2.25
1764746231.076864,2.42
1764746231.08307,2.5
1764746231.089351,2.31
1764746231.0957,2.36
1764746231.1020758,2.43
1764746231.108116,2.33
1764746231.1143758,2.35
1764746231.120617,2.28
1764746231.126834,2.22
1764746231.133035,2.22
1764746231.1393979,2.06
1764746231.145566,2.16
1764746231.152252,2.23
1764746231.158186,2.14
1764746231.164313,2.18
1764746231.170631,2.2
1764746231.1768372,2.28
1764746231.1831932,2.21
1764746231.189355,2.15
1764746231.1954849,2.36
1764746231.201834,2.46
1764746231.208025,3.07
1764746231.2143738,3.17
1764746231.220564,3.17
1764746231.226759,3.17
1764746231.233081,2.61
1764746231.239368,1.45
1764746231.2455418,2.13
1764746231.251935,2.47
1764746231.258074,2.05
1764746231.2643058,2.09
1764746231.270487,2.18
1764746231.2768471,2.17
1764746231.282964,2.11
1764746231.289275,2.11
1764746231.295568,2.25
1764746231.3018181,2.12
1764746231.3080251,1.98
1764746231.3142369,2.25
1764746231.320561,2.03
1764746231.326781,1.77
1764746231.333172,1.96
1764746231.3393111,2.14
1764746231.345454,2.17
1764746231.3519402,2.04
1764746231.35803,2.04
1764746231.364251,2.17
1764746231.3705878,2.0
1764746231.376788,1.94
1764746231.3830001,2.0
1764746231.3892322,1.94
1764746231.395614,2.05
1764746231.401807,2.09
1764746231.4080331,2.26
1764746231.414237,2.18
1764746231.420628,1.8
1764746231.426832,1.93
1764746231.433513,1.76
1764746231.4393852,1.36
1764746231.4455109,1.66
1764746231.451814,1.74
1764746231.458007,1.58
1764746231.464223,1.66
1764746231.4707541,1.8
1764746231.476759,1.98
1764746231.482904,1.85
1764746231.489271,1.79
1764746231.4954839,1.98
1764746231.501824,1.87
1764746231.5079849,1.96
1764746231.5143218,2.03
1764746231.52076,1.85
1764746231.526907,1.84
1764746231.533057,1.88
1764746231.539305,1.82
1764746231.545582,1.84
1764746231.5517771,1.74
1764746231.558144,1.66
1764746231.564281,1.55
1764746231.570718,1.65
1764746231.5768461,1.63
1764746231.5831811,1.48
1764746231.5893,1.53
1764746231.595528,1.83
1764746231.601784,1.59
1764746231.607984,1.55
1764746231.614311,1.89
1764746231.6205351,1.64
1764746231.6268191,1.57
1764746231.632944,1.63
1764746231.639253,1.39
1764746231.645449,1.72
1764746231.6518242,1.61
1764746231.657948,1.31
1764746231.664211,1.18
1764746231.6704488,1.09
1764746231.676704,1.4
1764746231.682855,1.36
1764746231.689153,1.16
1764746231.695434,1.41
1764746231.701698,1.39
1764746231.708022,1.46
1764746231.7141628,1.3
1764746231.720576,1.0
1764746231.726729,1.16
1764746231.733171,1.26
1764746231.739166,1.61
1764746231.745436,2.63
1764746231.751799,2.86
1764746231.758052,2.64
1764746231.7642372,1.55
1764746231.7705128,0.66
1764746231.7766578,1.37
1764746231.783008,1.61
1764746231.7892091,0.94
1764746231.801106,1.22
1764746231.834665,1.3
1764746231.8436549,1.12
1764746231.84379,1.21
1764746231.846315,1.01
1764746231.8484302,1.17
1764746231.866954,1.32
1764746231.869161,1.15
1764746231.869502,1.26
1764746231.869803,1.34
1764746231.870053,1.31
1764746231.8704152,1.3
1764746231.87052,1.2
1764746231.876698,1.3
1764746231.8848681,1.27
1764746231.889285,1.12
1764746231.8953652,1.25
1764746231.9017332,1.28
1764746231.90798,1.26
1764746231.9141812,1.39
1764746231.920356,1.22
1764746231.926634,1.43
1764746231.932946,1.6
1764746231.939021,1.4
1764746231.9454021,1.58
1764746231.951755,1.33
1764746231.9578822,1.01
1764746231.964148,1.4
1764746231.9703739,1.32
1764746231.9767292,1.11
1764746231.982982,1.19
1764746231.9891999,1.3
1764746231.995446,1.42
1764746232.0017521,1.22
1764746232.00813,1.23
1764746232.014124,1.56
1764746232.020422,1.39
1764746232.026604,1.47
1764746232.032932,1.58
1764746232.039077,1.77
1764746232.045401,1.52
1764746232.051828,1.01
1764746232.058181,1.16
1764746232.064086,1.59
1764746232.0704331,1.2
1764746232.076575,1.41
1764746232.082935,1.67
1764746232.0890281,1.38
1764746232.095466,1.44
1764746232.10177,1.38
1764746232.107899,1.61
1764746232.114113,1.7
1764746232.120461,1.48
1764746232.126594,1.58
1764746232.1330109,1.52
1764746232.139092,1.76
1764746232.1453388,2.08
1764746232.1517398,1.49
1764746232.15786,1.25
1764746232.164176,1.76
1764746232.1705642,1.67
1764746232.176641,1.42
1764746232.1828249,1.3
1764746232.189059,1.17
1764746232.195362,1.51
1764746232.202262,1.48
1764746232.2077801,1.3
1764746232.2140632,1.4
1764746232.2203462,1.22
1764746232.226624,1.48
1764746232.2328472,1.41
1764746232.239051,1.25
1764746232.245288,1.44
1764746232.251704,1.19
1764746232.257805,1.3
1764746232.2640672,1.74
1764746232.270428,2.14
1764746232.2765388,3.15
1764746232.282876,3.15
1764746232.289013,2.39
1764746232.2953112,1.04
1764746232.302141,0.91
1764746232.30784,1.47
1764746232.314029,1.47
1764746232.320346,1.45
1764746232.326508,1.31
1764746232.332793,1.21
1764746232.338924,1.28
1764746232.345275,1.57
1764746232.3519151,1.43
1764746232.357785,1.37
1764746232.3640902,1.53
1764746232.370336,1.49
1764746232.376548,1.59
1764746232.3828511,1.37
1764746232.389108,1.58
1764746232.39533,1.98
1764746232.4016378,1.52
1764746232.407939,1.45
1764746232.414032,1.48
1764746232.420386,1.35
1764746232.4265862,1.74
1764746232.432801,1.74
1764746232.438972,1.5
1764746232.4452639,1.75
1764746232.4516559,1.61
1764746232.4577868,1.73
1764746232.464193,1.86
1764746232.470242,1.6
1764746232.476592,1.8
1764746232.482709,1.74
1764746232.489027,1.81
1764746232.4953191,1.96
1764746232.5016232,1.68
1764746232.50777,1.64
1764746232.5140622,1.78
1764746232.520288,1.93
1764746232.526446,1.97
1764746232.5327559,1.66
1764746232.538995,1.73
1764746232.545287,2.15
1764746232.551606,1.86
1764746232.557777,1.79
1764746232.564044,2.05
1764746232.5703611,2.0
1764746232.576552,2.09
1764746232.5826838,1.92
1764746232.588971,2.13
1764746232.595312,2.44
1764746232.601834,1.77
1764746232.607693,1.86
1764746232.6139982,2.33
1764746232.620159,1.89
1764746232.626485,1.92
1764746232.632682,2.08
1764746232.639005,2.02
1764746232.645243,2.27
1764746232.651855,2.21
1764746232.657828,2.23
1764746232.663997,2.43
1764746232.670194,2.3
1764746232.676456,2.46
1764746232.682838,2.17
1764746232.6890361,1.99
1764746232.6952052,2.42
1764746232.701517,2.12
1764746232.707746,1.74
1764746232.71396,1.9
1764746232.720196,1.93
1764746232.726472,2.02
1764746232.732703,1.94
1764746232.738934,1.84
1764746232.7452002,2.17
1764746232.751498,2.01
1764746232.757793,1.95
1764746232.763991,1.92
1764746232.77024,1.73
1764746232.77656,1.96
1764746232.782766,1.96
1764746232.788862,1.95
1764746232.7951941,2.65
1764746232.80157,3.16
1764746232.807755,3.17
1764746232.813973,3.16
1764746232.820249,2.52
1764746232.826487,1.36
1764746232.832627,1.63
1764746232.838936,1.89
1764746232.845322,1.81
1764746232.851607,1.67
1764746232.8576472,1.81
1764746232.863988,1.95
1764746232.870465,1.73
1764746232.876531,1.81
1764746232.882724,1.82
1764746232.888887,1.64
1764746232.895159,1.83
1764746232.901765,1.74
1764746232.907712,1.61
1764746232.9139578,1.79
1764746232.920156,1.8
1764746232.9265192,1.71
1764746232.932738,1.73
1764746232.938949,1.68
1764746232.9451468,1.7
1764746232.951484,1.52
1764746232.957616,1.62
1764746232.963988,1.76
1764746232.9702241,1.62
1764746232.976477,1.79
1764746232.9826372,1.76
1764746232.988933,1.61
1764746232.995195,1.74
1764746233.00151,1.58
1764746233.007589,1.68
1764746233.0138729,1.74
1764746233.02021,1.45
1764746233.026447,1.53
1764746233.032671,1.47
1764746233.0389252,1.39
1764746233.045134,1.57
1764746233.0515652,1.38
1764746233.057639,1.42
1764746233.063835,1.56
1764746233.070146,1.26
1764746233.076454,1.51
1764746233.082643,1.51
1764746233.0889301,1.35
1764746233.095089,1.49
1764746233.101717,1.34
1764746233.10757,1.35
1764746233.1138198,1.18
1764746233.12007,0.98
1764746233.126366,1.32
1764746233.13271,1.33
1764746233.1389031,1.07
1764746233.1451678,1.24
1764746233.1514492,1.22
1764746233.157634,1.21
1764746233.1639411,1.26
1764746233.198505,0.99
1764746233.225867,1.15
1764746233.226015,1.26
1764746233.2261171,1.14
1764746233.226225,1.14
1764746233.226321,0.86
1764746233.226418,0.98
1764746233.232661,1.16
1764746233.247852,1.13
1764746233.2481868,1.29
1764746233.2483919,1.19
1764746233.248471,1.02
1764746233.248553,1.19
1764746233.2513301,0.99
1764746233.2594602,0.84
1764746233.26383,0.99
1764746233.2700748,0.77
1764746233.276335,0.74
1764746233.282676,0.87
1764746233.288804,0.67
1764746233.2951272,0.66
1764746233.301555,0.74
1764746233.307729,0.81
1764746233.313864,0.74
1764746233.32015,0.69
1764746233.326282,0.9
1764746233.332621,0.81
1764746233.338877,0.69
1764746233.345064,1.01
1764746233.3513842,1.68
1764746233.357672,2.57
1764746233.3638961,2.75
1764746233.3701289,2.02
1764746233.3763142,0.61
1764746233.382587,0.0
1764746233.388869,0.74
1764746233.395073,1.2
1764746233.4014342,0.71
1764746233.407646,0.64
1764746233.413824,1.12
1764746233.420077,1.16
1764746233.426322,0.86
1764746233.432539,0.81
1764746233.438902,0.94
1764746233.4450161,1.16
1764746233.451469,1.06
1764746233.457556,1.12
1764746233.463808,1.17
1764746233.4700139,0.97
1764746233.476331,1.13
1764746233.4826,1.28
1764746233.4888692,1.19
1764746233.4950678,1.31
1764746233.5013068,1.22
1764746233.5075939,1.17
1764746233.5138528,1.29
1764746233.519999,1.17
1764746233.52627,1.29
1764746233.53261,1.31
1764746233.538885,1.31
1764746233.544947,1.34
1764746233.55131,1.22
1764746233.5576682,1.22
1764746233.563875,1.33
1764746233.570053,1.31
1764746233.576332,1.18
1764746233.583235,1.03
1764746233.588851,1.06
1764746233.5950458,1.29
1764746233.601474,1.03
1764746233.6075451,1.07
1764746233.613757,1.26
1764746233.6200519,1.21
1764746233.626255,1.39
1764746233.632545,1.31
1764746233.638775,1.09
1764746233.645015,1.18
1764746233.651336,1.19
1764746233.657575,1.21
1764746233.663877,1.28
1764746233.66997,1.1
1764746233.676235,1.21
1764746233.6825511,1.21
1764746233.6888168,1.1
1764746233.695039,1.19
1764746233.701268,1.16
1764746233.707516,1.12
1764746233.714011,1.29
1764746233.7199712,1.23
1764746233.726358,1.13
1764746233.732512,1.11
1764746233.738873,1.09
1764746233.7449331,1.19
1764746233.75122,1.06
1764746233.757536,1.12
1764746233.763707,1.26
1764746233.769948,1.04
1764746233.776279,1.12
1764746233.7824872,1.37
1764746233.7887921,1.2
1764746233.794896,0.97
1764746233.801256,0.88
1764746233.807542,1.08
1764746233.813793,1.3
1764746233.8200011,1.14
1764746233.82621,1.11
1764746233.832407,1.14
1764746233.838752,1.1
1764746233.844958,1.26
1764746233.851382,1.09
1764746233.857513,1.41
1764746233.863743,1.47
1764746233.869965,1.18
1764746233.87622,1.28
1764746233.882418,1.27
1764746233.888701,1.01
1764746233.894973,1.06
1764746233.9012291,1.1
1764746233.907497,0.99
1764746233.913741,0.99
1764746233.920008,1.04
1764746233.926186,0.95
1764746233.9324632,0.87
1764746233.938751,0.94
1764746233.9448938,1.01
1764746233.9512372,0.93
1764746233.957469,0.96
1764746233.963702,0.94
1764746233.969971,0.82
1764746233.976217,1.07
1764746233.982395,1.64
1764746233.988652,2.32
1764746233.994965,2.72
1764746234.0012212,2.38
1764746234.007481,1.15
1764746234.013744,0.43
1764746234.0199082,0.72
1764746234.0261629,1.12
1764746234.032438,0.99
1764746234.0388322,0.8
1764746234.0449789,0.99
1764746234.0512269,0.92
1764746234.057462,0.72
1764746234.063667,0.89
1764746234.06991,0.91
1764746234.076242,0.91
1764746234.0825331,0.97
1764746234.088706,0.91
1764746234.094985,1.01
1764746234.101255,0.84
1764746234.107462,0.99
1764746234.113685,1.26
1764746234.119872,0.9
1764746234.126192,0.81
1764746234.132483,1.03
1764746234.138667,1.06
1764746234.1451058,1.21
1764746234.151403,1.11
1764746234.157407,1.09
1764746234.1637812,1.18
1764746234.169942,1.11
1764746234.176193,1.18
1764746234.182379,1.26
1764746234.188585,1.27
1764746234.1948411,1.38
1764746234.201261,1.19
1764746234.207415,1.13
1764746234.213599,1.33
1764746234.2198458,1.27
1764746234.2261279,1.19
1764746234.232407,1.18
1764746234.2386181,1.19
1764746234.244887,1.39
1764746234.2511518,1.3
1764746234.2574131,1.3
1764746234.2638102,1.48
1764746234.269936,1.27
1764746234.2761421,1.26
1764746234.282347,1.33
1764746234.288675,1.3
1764746234.294857,1.47
1764746234.3011642,1.34
1764746234.3073652,1.2
1764746234.313631,1.36
1764746234.319935,1.25
1764746234.3260999,1.25
1764746234.332461,1.41
1764746234.338506,1.39
1764746234.344793,1.44
1764746234.3512142,1.35
1764746234.357414,1.29
1764746234.363639,1.36
1764746234.369815,1.31
1764746234.376096,1.43
1764746234.382678,1.59
1764746234.388515,1.43
1764746234.3947809,1.33
1764746234.401112,1.25
1764746234.4073322,1.37
1764746234.41358,1.49
1764746234.4199302,1.31
1764746234.426107,1.37
1764746234.4323251,1.44
1764746234.438503,1.31
1764746234.444893,1.38
1764746234.451263,1.36
1764746234.457464,1.38
1764746234.463649,1.52
1764746234.469853,1.6
1764746234.476105,1.63
1764746234.4823098,1.51
1764746234.488502,1.62
1764746234.494775,1.93
1764746234.50112,1.65
1764746234.507314,1.53
1764746234.5136151,1.74
1764746234.5197902,1.72
1764746234.52608,1.49
1764746234.5323598,1.33
1764746234.538558,1.33
1764746234.544799,1.57
1764746234.5511198,1.52
1764746234.5573251,1.44
1764746234.563657,1.52
1764746234.569803,1.39
1764746234.576144,1.42
1764746234.582408,1.51
1764746234.588502,1.52
1764746234.594762,1.64
1764746234.6011221,1.43
1764746234.6073449,1.49
1764746234.613503,1.96
1764746234.61977,2.46
1764746234.626039,3.14
1764746234.632403,3.16
1764746234.638484,2.92
1764746234.651383,1.55
1764746234.6518478,1.12
1764746234.658766,1.66
1764746234.68114,1.62
1764746234.695997,1.43
1764746234.7071412,1.59
1764746234.707992,1.64
1764746234.722063,1.52
1764746234.722201,1.63
1764746234.7222688,1.65
1764746234.722414,1.65
1764746234.722513,1.72
1764746234.722601,1.69
1764746234.726036,1.7
1764746234.734411,1.7
1764746234.738503,1.64
1764746234.7448,1.77
1764746234.751169,1.62
1764746234.757314,1.83
1764746234.7635899,1.93
1764746234.7698061,1.58
1764746234.775987,1.73
1764746234.7822862,1.88
1764746234.788511,1.83
1764746234.794743,1.94
1764746234.801027,1.85
1764746234.807235,1.84
1764746234.813518,1.96
1764746234.819765,1.95
1764746234.826098,2.19
1764746234.832396,2.03
1764746234.838518,1.79
1764746234.8447402,2.11
1764746234.851049,2.0
1764746234.857298,1.95
1764746234.8635352,1.88
1764746234.86978,1.87
1764746234.8760262,2.09
1764746234.8823822,2.06
1764746234.888541,1.99
1764746234.894763,2.19
1764746234.901032,2.06
1764746234.9072719,2.05
1764746234.913488,2.28
1764746234.9197361,2.2
1764746234.926038,2.16
1764746234.93233,2.1
1764746234.938477,2.07
1764746234.9448252,2.01
1764746234.951029,1.98
1764746234.9573498,2.19
1764746234.963514,2.26
1764746234.9697762,2.17
1764746234.976059,2.25
1764746234.9823842,2.24
1764746234.988676,2.13
1764746234.994797,2.34
1764746235.001017,2.37
1764746235.007354,2.29
1764746235.0137868,2.36
1764746235.019809,2.48
1764746235.02609,2.34
1764746235.0326998,2.11
1764746235.03842,2.34
1764746235.044699,2.42
1764746235.051023,2.27
1764746235.0572531,2.43
1764746235.063513,2.48
1764746235.069747,2.03
1764746235.075958,2.27
1764746235.082314,2.54
1764746235.08846,2.47
1764746235.094765,2.41
1764746235.100906,2.32
1764746235.107229,2.53
1764746235.113429,2.63
1764746235.1197782,2.61
1764746235.1259289,2.62
1764746235.1323168,2.44
1764746235.1384552,2.34
1764746235.144834,2.34
1764746235.150923,2.23
1764746235.157226,2.2
1764746235.1634119,2.13
1764746235.169695,1.96
1764746235.17594,2.05
1764746235.182334,2.01
1764746235.188384,2.01
1764746235.194703,2.28
1764746235.2010722,1.96
1764746235.2071989,1.97
1764746235.213502,2.29
1764746235.219687,2.04
1764746235.225929,2.17
1764746235.232251,2.56
1764746235.238525,3.02
1764746235.2447848,3.15
1764746235.2509482,3.15
1764746235.25724,3.15
1764746235.263489,2.66
1764746235.269762,1.24
1764746235.2760031,1.84
1764746235.282347,2.49
1764746235.28848,2.06
1764746235.294698,2.02
1764746235.3009,1.99
1764746235.3071418,1.92
1764746235.3133838,2.02
1764746235.319673,1.95
1764746235.3259149,2.01
1764746235.332256,2.14
1764746235.338476,2.04
1764746235.344687,1.95
1764746235.3510568,1.93
1764746235.357289,2.26
1764746235.363422,2.16
1764746235.3696692,1.84
1764746235.375903,2.13
1764746235.382313,1.84
1764746235.3884192,1.69
1764746235.3948212,2.21
1764746235.400985,2.18
1764746235.4071949,1.96
1764746235.4134688,2.03
1764746235.419626,1.99
1764746235.426087,2.16
1764746235.432344,2.12
1764746235.438318,2.0
1764746235.444693,2.18
1764746235.45096,2.03
1764746235.457577,1.99
1764746235.4633799,2.17
1764746235.4696,1.98
1764746235.475905,2.1
1764746235.4825542,2.1
1764746235.488369,1.74
1764746235.494596,1.91
1764746235.500801,1.96
1764746235.507037,2.08
1764746235.5133388,2.33
1764746235.519527,1.96
1764746235.525794,2.08
1764746235.532119,1.9
1764746235.53828,1.64
1764746235.544611,1.92
1764746235.550823,1.76
1764746235.557076,1.7
1764746235.563429,2.0
1764746235.569598,1.98
1764746235.575892,2.1
1764746235.5821052,2.03
1764746235.588424,2.08
1764746235.59454,1.91
1764746235.600824,1.62
1764746235.60713,2.01
1764746235.613512,2.16
1764746235.6196108,1.86
1764746235.625794,1.96
1764746235.632138,1.81
1764746235.6384032,1.9
1764746235.644625,2.09
1764746235.650818,1.96
1764746235.657038,2.19
1764746235.663281,2.18
1764746235.6696022,1.63
1764746235.675817,1.85
1764746235.682175,2.02
1764746235.6882298,2.04
1764746235.6945689,2.11
1764746235.700879,1.92
1764746235.7070878,2.22
1764746235.71343,2.17
1764746235.719612,1.97
1764746235.725848,2.16
1764746235.7321558,1.8
1764746235.738258,1.77
1764746235.744534,1.99
1764746235.7508302,1.54
1764746235.75725,1.61
1764746235.7634351,1.96
1764746235.769542,1.58
1764746235.775841,1.44
1764746235.782162,1.59
1764746235.7882738,1.8
1764746235.794668,1.72
1764746235.800865,1.26
1764746235.80703,1.58
1764746235.8133261,1.93
1764746235.819551,1.75
1764746235.825854,2.61
1764746235.832064,3.17
1764746235.83827,3.16
1764746235.8445911,2.79
1764746235.850945,1.09
1764746235.857098,1.01
1764746235.863349,1.58
1764746235.869569,1.22
1764746235.875808,1.34
1764746235.88224,1.48
1764746235.888312,1.47
1764746235.894542,1.62
1764746235.90089,1.5
1764746235.907084,1.26
1764746235.913321,1.48
1764746235.919487,1.61
1764746235.925826,1.31
1764746235.932089,1.13
1764746235.938263,1.34
1764746235.944507,1.57
1764746235.95077,1.32
1764746235.957002,1.52
1764746235.96335,1.56
1764746235.9694982,1.29
1764746235.975772,1.52
1764746235.982045,1.52
1764746235.988178,1.45
1764746235.9944751,1.45
1764746236.000795,1.18
1764746236.006964,1.44
1764746236.013397,1.72
1764746236.0195231,1.32
1764746236.025716,1.34
1764746236.0320609,1.25
1764746236.03829,1.37
1764746236.0444238,1.53
1764746236.050765,1.31
1764746236.056972,1.36
1764746236.063288,1.35
1764746236.069468,1.42
1764746236.075661,1.48
1764746236.0820348,1.38
1764746236.088257,1.31
1764746236.094421,1.61
1764746236.100731,1.5
1764746236.10693,1.29
1764746236.113228,1.43
1764746236.1265862,1.1
1764746236.130996,1.39
1764746236.139581,1.4
1764746236.154409,1.18
1764746236.164941,1.41
1764746236.165108,1.36
1764746236.16524,1.43
1764746236.165372,1.79
1764746236.178965,1.52
1764746236.179172,1.36
1764746236.186972,1.48
1764746236.1922681,1.37
1764746236.194589,1.6
1764746236.2007082,1.4
1764746236.211993,1.35
1764746236.2166011,1.49
1764746236.2194932,1.34
1764746236.2257159,1.47
1764746236.2320588,1.46
1764746236.2382028,1.34
1764746236.244411,1.4
1764746236.250742,1.4
1764746236.256934,1.46
1764746236.263214,1.35
1764746236.269462,1.05
1764746236.2756531,1.24
1764746236.2821262,1.08
1764746236.288355,0.91
1764746236.294386,0.99
1764746236.300668,0.9
1764746236.306912,0.99
1764746236.31319,1.11
1764746236.319443,1.11
1764746236.3257039,1.3
1764746236.332145,1.23
1764746236.338131,1.14
1764746236.344439,1.16
1764746236.350702,0.88
1764746236.356873,0.78
1764746236.3631659,0.78
1764746236.3693771,0.67
1764746236.375659,0.9
1764746236.382126,0.82
1764746236.3882399,0.76
1764746236.394509,0.87
1764746236.400668,0.77
1764746236.406952,0.96
1764746236.413238,1.12
1764746236.419453,0.87
1764746236.425687,1.07
1764746236.432276,0.9
1764746236.4383008,1.03
1764746236.444413,1.82
1764746236.450667,2.5
1764746236.456934,2.65
1764746236.4633532,2.32
1764746236.4695292,0.88
1764746236.475719,0.5
1764746236.4824882,0.78
1764746236.488239,1.11
1764746236.494455,1.29
1764746236.5006871,0.97
1764746236.5069492,0.94
1764746236.5132859,1.17
1764746236.5194721,1.14
1764746236.525731,1.05
1764746236.532182,0.8
1764746236.5382621,0.97
1764746236.544683,1.14
1764746236.5507069,0.94
1764746236.5568929,1.25
1764746236.563176,1.32
1764746236.56941,1.01
1764746236.576024,1.24
1764746236.583273,1.39
1764746236.588212,1.3
1764746236.5944152,1.27
1764746236.600626,1.2
1764746236.6069171,1.39
1764746236.613128,1.27
1764746236.619423,1.1
1764746236.625748,1.41
1764746236.631965,1.32
1764746236.638145,1.24
1764746236.644392,1.52
1764746236.650642,1.51
1764746236.6568909,1.37
1764746236.663102,1.46
1764746236.6693492,1.52
1764746236.6758149,1.61
1764746236.681979,1.42
1764746236.6881611,1.42
1764746236.694444,1.64
1764746236.700683,1.43
1764746236.7069051,1.61
1764746236.7131379,1.62
1764746236.719337,1.34
1764746236.72575,1.61
1764746236.732183,1.63
1764746236.738086,1.54
1764746236.744341,1.61
1764746236.750612,1.56
1764746236.756833,1.74
1764746236.763069,1.87
1764746236.769409,1.59
1764746236.775732,1.64
1764746236.7818959,1.55
1764746236.7881448,1.61
1764746236.7943108,1.78
1764746236.8006651,1.68
1764746236.806825,1.62
1764746236.8130538,1.68
1764746236.819347,1.63
1764746236.82573,1.79
1764746236.831926,1.69
1764746236.838175,1.6
1764746236.8443,1.81
1764746236.850653,1.69
1764746236.8567958,1.85
1764746236.863044,1.78
1764746236.8693068,1.57
1764746236.875673,1.73
1764746236.881972,1.6
1764746236.8881128,1.52
1764746236.894398,1.74
1764746236.900558,1.63
1764746236.906942,1.6
1764746236.913172,1.69
1764746236.919424,1.68
1764746236.9256802,1.78
1764746236.9318888,1.7
1764746236.9380631,1.52
1764746236.944324,1.74
1764746236.9507022,1.66
1764746236.956861,1.73
1764746236.9633431,1.73
1764746236.969277,1.45
1764746236.9755871,1.66
1764746236.982303,1.48
1764746236.988014,1.52
1764746236.994276,1.9
1764746237.000591,1.67
1764746237.0067682,1.71
1764746237.0130272,1.94
1764746237.019242,1.82
1764746237.025493,1.96
1764746237.0317929,1.81
1764746237.038015,1.8
1764746237.0442328,1.97
1764746237.0505369,1.51
1764746237.056841,1.46
1764746237.0630841,1.58
1764746237.069273,1.52
1764746237.075579,1.48
1764746237.081821,1.33
1764746237.088023,1.45
1764746237.094615,1.59
1764746237.100526,1.34
1764746237.106755,1.55
1764746237.112994,1.58
1764746237.119266,1.23
1764746237.125599,1.39
1764746237.13181,1.48
1764746237.138004,1.7
1764746237.144282,2.55
1764746237.15075,3.02
1764746237.156735,2.95
1764746237.163069,2.3
1764746237.1692631,1.0
1764746237.175593,1.07
1764746237.1819808,1.41
1764746237.18798,1.42
1764746237.194277,1.33
1764746237.2005131,1.05
1764746237.206739,1.27
1764746237.2130392,1.43
1764746237.219262,1.12
1764746237.225591,1.19
1764746237.231801,1.29
1764746237.237993,1.2
1764746237.244246,1.3
1764746237.2505221,1.18
1764746237.256748,1.38
1764746237.263525,1.49
1764746237.2691898,1.32
1764746237.275501,1.17
1764746237.281868,1.09
1764746237.2880352,1.19
1764746237.294293,1.36
1764746237.30049,1.14
1764746237.306701,1.22
1764746237.31305,1.35
1764746237.3192132,1.17
1764746237.3254259,1.31
1764746237.3317592,1.31
1764746237.337968,1.3
1764746237.344262,1.22
1764746237.350462,1.09
1764746237.356821,1.33
1764746237.3629482,1.37
1764746237.369183,1.05
1764746237.37544,1.15
1764746237.3818262,1.23
1764746237.387945,1.13
1764746237.394187,1.19
1764746237.400446,1.14
1764746237.4067059,1.24
1764746237.412909,1.23
1764746237.419195,1.14
1764746237.425439,1.24
1764746237.431725,1.1
1764746237.438057,1.05
1764746237.444236,1.13
1764746237.450588,1.0
1764746237.4566872,1.16
1764746237.46294,1.14
1764746237.4691572,1.08
1764746237.475447,1.24
1764746237.481785,1.1
1764746237.4879942,1.05
1764746237.494165,1.3
1764746237.500424,1.05
1764746237.506785,0.96
1764746237.512964,1.13
1764746237.519354,1.11
1764746237.5253701,1.24
1764746237.531766,1.19
1764746237.537956,0.99
1764746237.544176,1.0
1764746237.550435,0.97
1764746237.5612311,1.19
1764746237.570074,1.2
1764746237.573171,0.95
1764746237.59731,1.09
1764746237.5980852,1.14
1764746237.598498,0.98
1764746237.598644,1.01
1764746237.6034648,1.07
1764746237.611852,1.23
1764746237.629261,1.21
1764746237.636617,1.13
1764746237.6374662,1.27
1764746237.638004,1.09
1764746237.638121,1.08
1764746237.6441731,1.34
1764746237.6539369,0.99
1764746237.6566432,1.11
1764746237.662951,1.24
1764746237.669167,1.03
1764746237.675374,1.2
1764746237.6817899,1.24
1764746237.6878679,1.19
1764746237.694231,1.35
1764746237.7004879,1.25
1764746237.7066932,1.25
1764746237.712964,1.43
1764746237.719243,1.46
1764746237.725476,1.54
1764746237.732161,1.33
1764746237.737838,1.37
1764746237.744212,1.44
1764746237.750345,1.1
1764746237.756695,1.16
1764746237.7628832,1.23
1764746237.7691011,1.01
1764746237.775357,1.15
1764746237.781673,1.16
1764746237.787863,1.09
1764746237.7941172,1.23
1764746237.8003452,1.13
1764746237.806688,1.14
1764746237.812947,1.25
1764746237.8191922,1.12
1764746237.825361,1.22
1764746237.831661,1.18
1764746237.837815,1.26
1764746237.8443258,1.88
1764746237.850383,2.53
1764746237.8566651,2.81
1764746237.8628569,2.51
1764746237.869178,1.12
1764746237.875604,0.65
1764746237.88161,1.05
1764746237.887807,1.07
1764746237.8942049,1.17
1764746237.900464,1.07
1764746237.9067001,1.07
1764746237.912837,1.23
1764746237.919085,1.04
1764746237.925499,1.03
1764746237.9316201,1.02
1764746237.93783,0.96
1764746237.944044,1.13
1764746237.950316,1.08
1764746237.956555,1.09
1764746237.9628348,1.17
1764746237.969173,1.04
1764746237.9754188,1.15
1764746237.981622,1.11
1764746237.987776,1.08
1764746237.994091,1.32
1764746238.000354,1.22
1764746238.006579,1.16
1764746238.014782,1.23
1764746238.019029,1.29
1764746238.025335,1.71
1764746238.0316238,1.21
1764746238.037858,0.87
1764746238.044082,1.29
1764746238.050333,1.27
1764746238.056721,1.24
1764746238.062816,1.35
1764746238.069067,1.31
1764746238.075279,1.34
1764746238.081642,1.35
1764746238.087845,1.33
1764746238.09409,1.37
1764746238.100318,1.26
1764746238.1065788,1.49
1764746238.1128378,1.44
1764746238.11901,1.23
1764746238.1252449,1.4
1764746238.13164,1.39
1764746238.1377861,1.29
1764746238.144095,1.38
1764746238.15028,1.3
1764746238.1565921,1.36
1764746238.162775,1.37
1764746238.169188,1.29
1764746238.175287,1.49
1764746238.1815958,1.43
1764746238.187853,1.37
1764746238.194079,1.54
1764746238.2002702,1.42
1764746238.206594,1.44
1764746238.2127628,1.57
1764746238.219096,1.51
1764746238.225356,1.57
1764746238.231791,1.46
1764746238.237908,1.49
1764746238.2440221,1.86
1764746238.25025,1.39
1764746238.256635,1.17
1764746238.262857,1.54
1764746238.268996,1.52
1764746238.27524,1.49
1764746238.2819,1.51
1764746238.287773,1.5
1764746238.294014,1.7
1764746238.300429,1.52
1764746238.306601,1.52
1764746238.3129442,1.61
1764746238.319038,1.46
1764746238.325291,1.72
1764746238.331597,1.62
1764746238.3378282,1.4
1764746238.34404,1.71
1764746238.350237,1.6
1764746238.356545,1.56
1764746238.3627641,1.61
1764746238.368971,1.57
1764746238.3752651,1.72
1764746238.381561,1.65
1764746238.387885,1.72
1764746238.393975,1.99
1764746238.4002602,1.88
1764746238.406495,1.84
1764746238.4128032,1.87
1764746238.4190028,1.83
1764746238.425311,1.96
1764746238.43219,1.9
1764746238.437829,1.79
1764746238.444082,1.84
1764746238.45033,1.66
1764746238.456534,1.63
1764746238.462827,1.72
1764746238.4690502,1.63
1764746238.475313,1.7
1764746238.4815,1.67
1764746238.487731,1.58
1764746238.493969,1.71
1764746238.5001988,1.64
1764746238.5065842,1.67
1764746238.512702,1.74
1764746238.518952,1.57
1764746238.525216,1.72
1764746238.531472,1.89
1764746238.5376902,2.23
1764746238.543953,3.14
1764746238.550161,3.16
1764746238.556438,3.14
1764746238.562808,2.19
1764746238.5690088,1.09
1764746238.575304,1.56
1764746238.5814888,1.81
1764746238.587764,1.65
1764746238.5939898,1.73
1764746238.600193,1.63
1764746238.6065722,1.69
1764746238.612708,1.82
1764746238.618964,1.7
1764746238.625192,1.76
1764746238.6314828,1.92
1764746238.6376908,1.86
1764746238.643977,1.67
1764746238.650274,1.55
1764746238.656468,1.75
1764746238.6627252,1.83
1764746238.668958,1.68
1764746238.6752472,1.79
1764746238.68167,1.82
1764746238.6876469,1.82
1764746238.693921,1.94
1764746238.700149,1.87
1764746238.706482,1.85
1764746238.7126532,1.89
1764746238.718886,1.83
1764746238.725122,2.0
1764746238.7313962,1.96
1764746238.737685,1.89
1764746238.743964,2.04
1764746238.750197,1.89
1764746238.756377,2.01
1764746238.7628338,2.12
1764746238.768895,1.95
1764746238.775088,2.04
1764746238.781425,2.12
1764746238.7876868,2.04
1764746238.793906,2.09
1764746238.800249,2.06
1764746238.806377,2.07
1764746238.8126888,2.05
1764746238.818944,1.93
1764746238.8251688,2.07
1764746238.83159,2.08
1764746238.837777,2.0
1764746238.8439848,2.14
1764746238.850175,1.99
1764746238.8564742,2.08
1764746238.862735,2.31
1764746238.868875,2.13
1764746238.875199,2.03
1764746238.881479,2.05
1764746238.887651,2.11
1764746238.893915,2.27
1764746238.900096,2.15
1764746238.906423,2.12
1764746238.912628,2.19
1764746238.9188962,2.05
1764746238.925144,2.27
1764746238.931537,2.23
1764746238.9376462,2.07
1764746238.943905,2.13
1764746238.950197,2.12
1764746238.956352,2.2
1764746238.9626591,2.22
1764746238.9688551,2.07
1764746238.975112,2.13
1764746238.981424,2.09
1764746238.987614,2.09
1764746238.993919,2.18
1764746239.000153,1.94
1764746239.0063858,2.1
1764746239.012793,2.2
1764746239.018854,1.94
1764746239.0251231,2.04
1764746239.036466,2.02
1764746239.074643,2.06
1764746239.107509,2.24
1764746239.1102421,2.11
1764746239.110503,2.14
1764746239.11071,2.26
1764746239.1108701,2.26
1764746239.1110132,2.4
1764746239.111131,2.34
1764746239.111234,2.25
1764746239.111339,2.36
1764746239.1116312,2.11
1764746239.1121101,2.07
1764746239.1126668,2.1
1764746239.118895,1.97
1764746239.1267881,2.01
1764746239.131364,1.91
1764746239.137816,2.06
1764746239.14384,2.39
1764746239.1501591,2.27
1764746239.1563,2.26
1764746239.162814,2.34
1764746239.16874,2.28
1764746239.1753411,2.36
1764746239.1813178,2.32
1764746239.187632,2.48
1764746239.193932,2.93
1764746239.200032,3.16
1764746239.206305,3.17
1764746239.212628,3.17
1764746239.2187352,3.14
1764746239.225018,2.08
1764746239.2312949,1.65
1764746239.237588,2.29
1764746239.243901,2.39
1764746239.2500648,1.96
1764746239.256345,2.05
1764746239.2627158,2.13
1764746239.269019,2.04
1764746239.275042,2.11
1764746239.281319,2.05
1764746239.287565,2.02
1764746239.293788,2.25
1764746239.300055,2.19
1764746239.306313,2.31
1764746239.312623,2.5
1764746239.318779,2.46
1764746239.325052,2.46
1764746239.3313138,2.44
1764746239.3375711,2.46
1764746239.343831,2.58
1764746239.3499892,2.5
1764746239.356311,2.55
1764746239.362632,2.46
1764746239.368768,2.31
1764746239.374974,2.49
1764746239.3812969,2.43
1764746239.38757,2.44
1764746239.393732,2.67
1764746239.400055,2.56
1764746239.40632,2.64
1764746239.412752,2.62
1764746239.4187279,2.55
1764746239.4249542,2.63
1764746239.4313102,2.64
1764746239.4377851,2.64
1764746239.4440162,2.63
1764746239.449999,2.47
1764746239.456459,2.59
1764746239.4626188,2.77
1764746239.468723,2.58
1764746239.474962,2.62
1764746239.481445,2.56
1764746239.487606,2.85
1764746239.493792,2.83
1764746239.500034,2.17
1764746239.506326,2.29
1764746239.512622,2.6
1764746239.518754,2.46
1764746239.525447,2.56
1764746239.531471,2.52
1764746239.537508,2.6
1764746239.543839,3.16
1764746239.5500731,3.0
1764746239.556283,2.13
1764746239.562557,2.1
1764746239.5687912,2.72
1764746239.574964,2.53
1764746239.581326,1.5
1764746239.587584,1.51
1764746239.5938098,2.33
1764746239.6001952,2.06
1764746239.606323,1.87
1764746239.612576,2.09
1764746239.61883,2.01
1764746239.625099,2.04
1764746239.631346,2.09
1764746239.637551,1.96
1764746239.643876,1.85
1764746239.6500638,2.11
1764746239.6562939,1.84
1764746239.6626391,1.79
1764746239.66878,2.17
1764746239.675199,1.93
1764746239.681288,1.75
1764746239.6875489,2.01
1764746239.6938272,2.17
1764746239.699919,2.02
1764746239.706203,2.13
1764746239.712605,2.26
1764746239.718694,2.4
1764746239.724938,1.94
1764746239.731245,2.28
1764746239.7375832,2.43
1764746239.74387,1.71
1764746239.7499971,1.58
1764746239.756258,1.98
1764746239.762586,2.18
1764746239.768673,1.82
1764746239.7750368,1.58
1764746239.781327,1.7
1764746239.7874749,2.11
1764746239.7937012,2.1
1764746239.799962,1.71
1764746239.8062432,1.47
1764746239.812636,1.5
1764746239.818741,1.67
1764746239.824946,2.18
1764746239.8312619,1.73
1764746239.837575,1.91
1764746239.843714,2.96
1764746239.849952,3.16
1764746239.856268,3.16
1764746239.862554,2.44
1764746239.868648,0.67
1764746239.874926,1.43
1764746239.8812742,2.16
1764746239.887511,1.47
1764746239.8937721,1.29
1764746239.89998,1.32
1764746239.906249,1.72
1764746239.912606,1.77
1764746239.918682,1.41
1764746239.924962,1.47
1764746239.931193,1.55
1764746239.937469,1.76
1764746239.943687,1.76
1764746239.9499679,1.38
1764746239.9561841,1.53
1764746239.9625459,1.58
1764746239.9686558,1.6
1764746239.9749959,1.54
1764746239.9811552,1.32
1764746239.9873862,1.7
1764746239.993671,1.61
1764746239.9999301,1.0
1764746240.006154,1.74
1764746240.0125902,1.84
1764746240.018612,1.12
1764746240.0249689,1.34
1764746240.031137,1.46
1764746240.037503,1.31
1764746240.043645,1.2
1764746240.0498528,1.25
1764746240.056192,1.83
1764746240.062573,1.33
1764746240.068636,0.86
1764746240.0749671,1.45
1764746240.0811388,1.61
1764746240.0874119,0.97
1764746240.0936708,0.66
1764746240.0998552,1.23
1764746240.106188,1.26
1764746240.112472,0.57
1764746240.11856,0.92
1764746240.1248882,1.41
1764746240.1312199,0.89
1764746240.1374452,0.71
1764746240.143614,1.23
1764746240.1499462,0.94
1764746240.15614,1.28
1764746240.1624498,0.89
1764746240.168586,0.51
1764746240.174978,1.29
1764746240.181118,0.93
1764746240.187391,0.76
1764746240.193599,1.1
1764746240.199861,1.01
1764746240.206145,1.05
1764746240.212506,0.82
1764746240.218647,0.91
1764746240.224828,1.04
1764746240.231138,0.74
1764746240.237401,0.83
1764746240.243684,1.18
1764746240.249851,1.42
1764746240.256119,0.9
1764746240.2624772,1.23
1764746240.268605,1.06
1764746240.2748742,1.01
1764746240.281214,0.83
1764746240.287468,1.2
1764746240.29354,1.15
1764746240.299854,0.72
1764746240.306165,0.93
1764746240.31241,1.05
1764746240.318559,1.3
1764746240.324894,1.69
1764746240.331052,1.3
1764746240.337307,1.2
1764746240.343603,1.51
1764746240.349791,1.55
1764746240.356126,1.37
1764746240.36241,1.13
1764746240.368577,1.21
1764746240.374824,1.5
1764746240.3811631,1.05
1764746240.387263,1.1
1764746240.393551,1.53
1764746240.399914,0.98
1764746240.406187,1.36
1764746240.4123552,1.41
1764746240.418634,0.99
1764746240.424845,1.13
1764746240.431067,1.29
1764746240.437409,1.19
1764746240.4436202,1.14
1764746240.44985,1.07
1764746240.4561028,1.15
1764746240.462423,1.16
1764746240.4686358,1.23
1764746240.4747741,2.17
1764746240.4812229,2.89
1764746240.487355,2.52
1764746240.493505,2.21
1764746240.5013099,1.51
1764746240.511898,0.87
1764746240.533003,1.03
1764746240.547162,1.29
1764746240.547301,0.98
1764746240.547413,0.88
1764746240.547519,1.31
1764746240.5476348,1.4
1764746240.561277,0.81
1764746240.571127,0.97
1764746240.5712519,1.26
1764746240.5713558,1.43
1764746240.57497,1.34
1764746240.5810912,0.88
1764746240.587723,1.17
1764746240.594264,1.55
1764746240.599802,1.22
1764746240.6062138,0.99
1764746240.6123772,1.19
1764746240.618604,1.05
1764746240.6248362,1.24
1764746240.6310241,1.29
1764746240.637198,1.09
1764746240.64349,1.26
1764746240.650028,1.34
1764746240.656039,1.36
1764746240.662406,1.12
1764746240.668561,1.06
1764746240.6748512,1.36
1764746240.681202,1.26
1764746240.687239,1.1
1764746240.69353,1.32
1764746240.69978,1.19
1764746240.706083,1.17
1764746240.712449,1.26
1764746240.7185652,1.18
1764746240.7247639,1.25
1764746240.7309608,1.24
1764746240.737205,1.28
1764746240.743563,1.24
1764746240.7497542,1.09
1764746240.756028,1.31
1764746240.7623959,1.5
1764746240.768424,1.29
1764746240.7747111,1.26
1764746240.780971,1.13
1764746240.787234,1.33
1764746240.793463,1.68
1764746240.799789,1.32
1764746240.80606,1.19
1764746240.812284,1.42
1764746240.81862,1.35
1764746240.824914,1.55
1764746240.83105,1.41
1764746240.837232,1.3
1764746240.8435378,1.35
1764746240.84981,1.34
1764746240.856162,1.49
1764746240.862205,1.47
1764746240.868602,1.38
1764746240.8748102,1.47
1764746240.881066,1.3
1764746240.887302,1.41
1764746240.8935082,1.61
1764746240.899741,1.36
1764746240.905975,1.43
1764746240.9122891,1.56
1764746240.918474,1.47
1764746240.9247968,1.59
1764746240.931011,1.45
1764746240.937175,1.33
1764746240.94344,1.64
1764746240.94968,1.57
1764746240.955997,1.63
1764746240.962214,1.63
1764746240.9684072,1.63
1764746240.974657,1.83
1764746240.980982,1.7
1764746240.987137,1.87
1764746240.993508,2.09
1764746240.999735,1.86
1764746241.0059369,1.92
1764746241.012206,1.86
1764746241.018477,1.68
1764746241.0247009,1.78
1764746241.031009,1.66
1764746241.037132,1.56
1764746241.043411,1.62
1764746241.0496829,1.56
1764746241.055937,1.68
1764746241.06226,1.56
1764746241.068479,1.47
1764746241.0747762,1.74
1764746241.080904,1.59
1764746241.087167,1.6
1764746241.093486,1.72
1764746241.099684,1.48
1764746241.1059399,1.65
1764746241.112206,1.86
1764746241.1183841,2.2
1764746241.124672,3.03
1764746241.130912,3.05
1764746241.137088,2.66
1764746241.143434,1.61
1764746241.149653,0.9
1764746241.15589,1.48
1764746241.162198,1.73
1764746241.168441,1.4
1764746241.174738,1.57
1764746241.180903,1.43
1764746241.187123,1.47
1764746241.1934621,1.5
1764746241.1996522,1.37
1764746241.205986,1.54
1764746241.212422,1.55
1764746241.2185202,1.41
1764746241.224836,1.56
1764746241.231053,1.5
1764746241.237244,1.47
1764746241.243618,1.6
1764746241.249717,1.48
1764746241.255892,1.52
1764746241.262429,1.66
1764746241.268409,1.32
1764746241.274681,1.47
1764746241.2810419,1.52
1764746241.287165,1.46
1764746241.293462,1.53
1764746241.2996428,1.47
1764746241.305853,1.61
1764746241.312169,1.61
1764746241.318506,1.42
1764746241.324661,1.56
1764746241.3308558,1.52
1764746241.3371499,1.53
1764746241.343414,1.63
1764746241.34965,1.43
1764746241.355881,1.53
1764746241.362216,1.6
1764746241.368417,1.44
1764746241.374623,1.56
1764746241.380835,1.56
1764746241.387071,1.53
1764746241.393485,1.64
1764746241.3997319,1.54
1764746241.40588,1.72
1764746241.4123251,1.76
1764746241.4183621,1.65
1764746241.424614,1.83
1764746241.4309042,1.86
1764746241.437165,1.88
1764746241.44339,1.98
1764746241.449627,1.84
1764746241.4558048,1.92
1764746241.4622679,1.92
1764746241.468652,1.78
1764746241.474779,2.06
1764746241.48102,2.0
1764746241.4871721,1.85
1764746241.4934552,1.97
1764746241.499636,1.82
1764746241.505845,1.91
1764746241.512388,1.95
1764746241.518364,1.8
1764746241.5245419,1.89
1764746241.530826,1.79
1764746241.53718,1.76
1764746241.543322,1.9
1764746241.549542,1.83
1764746241.555873,1.92
1764746241.562332,1.89
1764746241.5683799,1.88
1764746241.574569,2.2
1764746241.580827,1.99
1764746241.587153,1.8
1764746241.593337,1.9
1764746241.599524,1.77
1764746241.605881,1.9
1764746241.612204,1.84
1764746241.618272,1.71
1764746241.624504,1.95
1764746241.630839,1.84
1764746241.6370728,1.75
1764746241.643299,2.0
1764746241.649547,1.9
1764746241.65589,1.88
1764746241.662144,1.82
1764746241.6685781,1.68
1764746241.674734,1.69
1764746241.68082,1.43
1764746241.687041,1.35
1764746241.693287,1.44
1764746241.699478,1.34
1764746241.7059798,1.42
1764746241.712091,1.36
1764746241.718241,1.22
1764746241.7246542,1.38
1764746241.7308512,1.24
1764746241.7370172,1.21
1764746241.743388,1.36
1764746241.749533,1.18
1764746241.755743,1.16
1764746241.762221,1.22
1764746241.768502,1.33
1764746241.774546,2.06
1764746241.7808619,2.5
1764746241.7871108,2.4
1764746241.793322,2.01
1764746241.799529,0.7
1764746241.805826,0.47
1764746241.812331,1.0
1764746241.818354,1.0
1764746241.824498,0.93
1764746241.830752,0.78
1764746241.836999,0.8
1764746241.843312,0.98
1764746241.849508,0.84
1764746241.855847,0.93
1764746241.862175,0.91
1764746241.8683672,0.75
1764746241.87446,0.94
1764746241.880841,0.91
1764746241.887098,0.89
1764746241.89328,1.09
1764746241.899549,0.95
1764746241.9058292,1.02
1764746241.912214,0.97
1764746241.918592,0.86
1764746241.924636,0.99
1764746241.930799,0.93
1764746241.9370382,0.97
1764746241.9432619,1.09
1764746241.949576,0.93
1764746241.9558039,1.05
1764746241.962143,1.2
1764746241.968292,0.99
1764746241.9745128,1.1
1764746241.980813,1.05
1764746241.9870348,0.96
1764746241.993199,1.11
1764746241.999475,1.09
1764746242.0058172,1.07
1764746242.012,0.9
1764746242.018228,0.96
1764746242.024467,1.24
1764746242.030774,1.11
1764746242.036989,1.13
1764746242.043217,1.25
1764746242.049473,1.18
1764746242.0557911,1.37
1764746242.062144,1.45
1764746242.068272,1.02
1764746242.074534,0.87
1764746242.0807319,1.12
1764746242.086956,1.27
1764746242.093178,1.12
1764746242.0994391,1.05
1764746242.105809,1.31
1764746242.111979,1.17
1764746242.118287,1.13
1764746242.124507,1.38
1764746242.130769,1.51
1764746242.1370292,1.57
1764746242.143181,1.25
1764746242.149478,0.87
1764746242.1557062,1.07
1764746242.171797,1.17
1764746242.171983,1.08
1764746242.183417,1.24
1764746242.184507,1.23
1764746242.194497,1.27
1764746242.194727,1.37
1764746242.200046,1.32
1764746242.229312,1.5
1764746242.229412,1.37
1764746242.2376661,1.16
1764746242.2381492,1.42
1764746242.238345,1.41
1764746242.2384949,1.3
1764746242.24321,1.37
1764746242.249582,1.27
1764746242.256765,1.4
1764746242.262275,1.53
1764746242.2681658,1.38
1764746242.2747688,1.44
1764746242.28067,1.52
1764746242.286974,1.58
1764746242.293164,1.52
1764746242.299398,1.5
1764746242.3056571,1.82
1764746242.31195,1.72
1764746242.318197,1.63
1764746242.324503,1.73
1764746242.330647,1.25
1764746242.336978,1.18
1764746242.343202,1.36
1764746242.3494048,1.21
1764746242.355728,1.23
1764746242.362429,1.31
1764746242.368167,1.24
1764746242.374527,1.33
1764746242.380718,1.26
1764746242.3868349,1.25
1764746242.3932512,1.36
1764746242.399379,1.24
1764746242.405612,1.39
1764746242.4119282,1.45
1764746242.418098,1.28
1764746242.4245021,1.45
1764746242.4307368,1.61
1764746242.436901,2.14
1764746242.443182,2.96
1764746242.449445,2.99
1764746242.455675,2.51
1764746242.4621089,1.33
1764746242.468095,0.97
1764746242.474414,1.51
1764746242.480661,1.49
1764746242.486928,1.38
1764746242.493113,1.49
1764746242.4993868,1.43
1764746242.505673,1.42
1764746242.511899,1.39
1764746242.5181649,1.34
1764746242.524409,1.45
1764746242.530568,1.3
1764746242.5368462,1.31
1764746242.5431428,1.47
1764746242.549414,1.28
1764746242.555583,1.32
1764746242.561889,1.35
1764746242.568117,1.33
1764746242.574361,1.51
1764746242.580627,1.48
1764746242.586776,1.46
1764746242.5931258,1.54
1764746242.5993679,1.47
1764746242.605673,1.6
1764746242.612051,1.6
1764746242.618082,1.43
1764746242.6242838,1.55
1764746242.6306062,1.57
1764746242.6368692,1.57
1764746242.643342,1.7
1764746242.6493282,1.5
1764746242.655612,1.53
1764746242.661881,1.75
1764746242.668146,1.75
1764746242.6743622,1.47
1764746242.680567,1.36
1764746242.686784,1.56
1764746242.693133,1.77
1764746242.6993432,1.47
1764746242.705531,1.4
1764746242.711811,1.51
1764746242.718234,1.49
1764746242.724363,1.6
1764746242.7305548,1.49
1764746242.736794,1.53
1764746242.743062,1.68
1764746242.749303,1.55
1764746242.75563,1.63
1764746242.762061,1.7
1764746242.7680798,1.96
1764746242.7743309,1.86
1764746242.780596,1.45
1764746242.786914,1.63
1764746242.7930748,1.77
1764746242.799414,1.55
1764746242.805563,1.66
1764746242.811852,1.78
1764746242.8180952,1.74
1764746242.8243358,1.79
1764746242.830487,1.65
1764746242.83677,1.74
1764746242.843083,1.87
1764746242.849334,1.74
1764746242.855532,1.85
1764746242.8620129,2.05
1764746242.8680289,2.0
1764746242.874331,2.01
1764746242.880627,1.76
1764746242.886855,1.61
1764746242.8932061,1.95
1764746242.899311,2.02
1764746242.9056,2.07
1764746242.911891,1.96
1764746242.918051,1.86
1764746242.924351,2.09
1764746242.9304981,2.07
1764746242.936897,2.01
1764746242.9430668,2.02
1764746242.9493802,1.65
1764746242.955609,1.62
1764746242.962038,1.61
1764746242.968173,1.65
1764746242.974478,1.93
1764746242.9805498,1.54
1764746242.986807,1.19
1764746242.9930828,1.42
1764746242.9993181,1.41
1764746243.005633,1.4
1764746243.012032,1.31
1764746243.018074,1.31
1764746243.024562,1.47
1764746243.030627,1.39
1764746243.0367649,1.37
1764746243.0430982,1.51
1764746243.049333,1.37
1764746243.0556428,1.37
1764746243.061804,1.34
1764746243.068172,1.22
1764746243.074338,1.77
1764746243.080571,1.62
1764746243.086699,1.72
1764746243.093034,2.56
1764746243.099299,2.65
1764746243.105485,1.88
1764746243.1117399,0.74
1764746243.117974,0.83
1764746243.1242292,1.59
1764746243.130473,1.47
1764746243.136796,1.24
1764746243.1431959,1.57
1764746243.149209,2.09
1764746243.1554859,1.82
1764746243.161783,1.02
1764746243.1680572,1.08
1764746243.174197,1.74
1764746243.180466,1.76
1764746243.186687,1.69
1764746243.192966,1.81
1764746243.199185,1.77
1764746243.2054882,1.98
1764746243.211709,1.95
1764746243.2179441,1.82
1764746243.224233,1.99
1764746243.2304409,1.91
1764746243.2367098,1.93
1764746243.24301,2.1
1764746243.249168,1.97
1764746243.255548,2.05
1764746243.26175,1.98
1764746243.267958,1.95
1764746243.274237,2.13
1764746243.280458,2.02
1764746243.2866728,2.17
1764746243.2932029,2.38
1764746243.29918,1.97
1764746243.3054888,2.12
1764746243.311748,2.17
1764746243.317945,2.13
1764746243.324206,2.39
1764746243.330444,2.35
1764746243.33663,2.38
1764746243.343037,2.61
1764746243.349236,2.51
1764746243.355447,2.39
1764746243.361695,2.68
1764746243.367893,2.58
1764746243.374223,2.41
1764746243.380405,2.47
1764746243.386685,2.69
1764746243.393282,2.88
1764746243.399276,2.55
1764746243.405674,2.7
1764746243.411891,2.87
1764746243.417954,2.66
1764746243.42419,2.61
1764746243.430431,2.6
1764746243.436639,2.82
1764746243.442977,2.9
1764746243.449237,2.67
1764746243.4554172,2.85
1764746243.461792,2.96
1764746243.46793,2.89
1764746243.4743948,3.11
1764746243.480543,2.89
1764746243.4866712,2.84
1764746243.493053,3.15
1764746243.4992168,2.98
1764746243.5055869,2.89
1764746243.511691,3.03
1764746243.517965,3.0
1764746243.524253,3.14
1764746243.530475,3.06
1764746243.536702,2.93
1764746243.542979,3.05
1764746243.549184,3.13
1764746243.555417,3.15
1764746243.561607,3.15
1764746243.567945,3.16
1764746243.574195,3.16
1764746243.5804641,3.16
1764746243.586658,3.17
1764746243.593567,3.17
1764746243.59911,3.17
1764746243.605351,3.17
1764746243.611766,3.17
1764746243.617897,3.16
1764746243.624158,3.16
1764746243.630441,3.14
1764746243.6366222,3.1
1764746243.643023,2.89
1764746243.649164,2.68
1764746243.655446,2.78
1764746243.6617432,2.93
1764746243.667891,3.14
1764746243.674159,3.15
1764746243.680425,3.15
1764746243.686635,3.15
1764746243.693076,3.15
1764746243.699122,3.17
1764746243.705364,3.17
1764746243.7116091,3.18
1764746243.717932,3.18
1764746243.724161,3.18
1764746243.7304,3.17
1764746243.7365131,3.16
1764746243.742912,3.0
1764746243.749068,2.55
1764746243.755413,2.77
1764746243.761655,2.78
1764746243.7678132,2.58
1764746243.7744498,2.71
1764746243.806245,2.64
1764746243.83729,2.59
1764746243.837433,2.61
1764746243.846099,2.46
1764746243.848885,2.56
1764746243.8524008,2.59
1764746243.8525171,2.37
1764746243.8526368,2.46
1764746243.8584719,2.52
1764746243.858569,2.41
1764746243.858685,2.44
1764746243.8588428,2.4
1764746243.8592482,2.26
1764746243.861633,2.28
1764746243.867869,2.23
1764746243.8790941,2.28
1764746243.880637,2.17
1764746243.886893,2.16
1764746243.894424,2.22
1764746243.899095,2.13
1764746243.905405,2.09
1764746243.911671,2.11
1764746243.917975,1.96
1764746243.9241421,2.1
1764746243.93029,1.97
1764746243.936553,1.79
1764746243.943106,2.03
1764746243.9489899,1.8
1764746243.9553,1.47
1764746243.961569,1.7
1764746243.967938,1.69
1764746243.974066,1.65
1764746243.980263,1.64
1764746243.986563,1.6
1764746243.9930382,1.69
1764746243.999101,1.68
1764746244.005291,1.62
1764746244.0117261,1.79
1764746244.01792,1.49
1764746244.024215,1.15
1764746244.0303519,1.22
1764746244.036559,1.36
1764746244.042828,1.51
1764746244.049068,1.28
1764746244.055339,1.02
1764746244.061569,1.1
1764746244.067888,1.11
1764746244.074157,1.05
1764746244.0803661,1.0
1764746244.086686,0.98
1764746244.0932732,1.0
1764746244.098976,0.93
1764746244.105249,1.07
1764746244.11153,0.99
1764746244.117762,0.87
1764746244.124085,0.96
1764746244.130243,0.63
1764746244.13648,0.35
1764746244.142988,0.63
1764746244.149173,0.75
1764746244.155253,0.61
1764746244.161619,0.89
1764746244.167895,0.66
1764746244.174207,0.52
1764746244.180321,0.83
1764746244.186597,0.85
1764746244.192876,0.78
1764746244.198952,0.81
1764746244.2052538,0.78
1764746244.2115068,0.47
1764746244.217817,0.0
1764746244.224162,0.2
1764746244.230339,0.26
1764746244.236594,0.02
1764746244.2429671,0.18
1764746244.2489579,0.27
1764746244.255318,0.09
1764746244.261664,0.0
1764746244.267749,0.0
1764746244.274049,0.01
1764746244.280349,0.64
1764746244.286458,0.09
1764746244.293098,0.0
1764746244.29911,0.0
1764746244.3052669,0.0
1764746244.311559,0.34
1764746244.31775,1.43
1764746244.324001,1.47
1764746244.33032,0.95
1764746244.3364139,0.0
1764746244.342859,0.0
1764746244.349099,0.0
1764746244.355267,0.0
1764746244.361492,0.0
1764746244.367771,0.0
1764746244.374034,0.0
1764746244.380281,0.0
1764746244.386434,0.0
1764746244.3932009,0.0
1764746244.3990479,0.0
1764746244.4052742,0.0
1764746244.411475,0.0
1764746244.4178061,0.0
1764746244.424073,0.0
1764746244.430259,0.0
1764746244.436418,0.0
1764746244.442944,0.0
1764746244.44894,0.0
1764746244.4552372,0.0
1764746244.461639,0.5
1764746244.4677289,0.8
1764746244.47408,0.75
1764746244.480299,0.95
1764746244.486548,0.8
1764746244.49282,0.96
1764746244.498985,1.08
1764746244.505258,0.89
1764746244.511422,0.98
1764746244.517665,0.89
1764746244.524142,1.19
1764746244.530415,1.16
1764746244.536405,0.29
1764746244.542916,0.52
1764746244.54899,1.09
1764746244.555368,0.96
1764746244.561536,0.81
1764746244.5676532,0.57
1764746244.574027,0.51
1764746244.580307,0.98
1764746244.586622,0.96
1764746244.592688,0.29
1764746244.598999,0.29
1764746244.60534,0.43
1764746244.611616,0.5
1764746244.61769,0.47
1764746244.623873,0.55
1764746244.6301801,0.69
1764746244.636414,0.57
1764746244.642723,0.65
1764746244.6489332,0.63
1764746244.655252,0.58
1764746244.6614661,0.69
1764746244.667744,0.57
1764746244.673978,0.54
1764746244.680243,0.71
1764746244.686628,0.61
1764746244.692765,0.7
1764746244.6989639,0.95
1764746244.7054021,0.85
1764746244.711514,0.98
1764746244.7176802,1.21
1764746244.723996,0.57
1764746244.7301838,0.0
1764746244.736356,0.5
1764746244.7427452,0.89
1764746244.748941,0.74
1764746244.755328,0.57
1764746244.761427,0.84
1764746244.7676349,0.93
1764746244.77392,0.87
1764746244.78017,0.95
1764746244.786407,1.02
1764746244.792953,1.15
1764746244.798958,1.09
1764746244.8051908,0.88
1764746244.8113961,1.03
1764746244.817719,0.83
1764746244.824013,0.46
1764746244.8302028,0.59
1764746244.836386,0.63
1764746244.8426409,0.63
1764746244.848885,0.66
1764746244.855079,0.56
1764746244.8613482,0.68
1764746244.8675761,0.57
1764746244.873921,0.51
1764746244.880115,0.72
1764746244.8863559,0.61
1764746244.892652,0.65
1764746244.898824,0.68
1764746244.905117,0.61
1764746244.91132,0.96
1764746244.9176629,1.66
1764746244.923839,2.2
1764746244.9300969,2.35
1764746244.936322,1.57
1764746244.942611,0.27
1764746244.94885,0.2
1764746244.95506,0.82
1764746244.961354,0.84
1764746244.9675798,0.52
1764746244.973978,0.52
1764746244.980043,0.79
1764746244.986361,0.69
1764746244.992824,0.82
1764746244.998784,0.72
1764746245.005047,0.62
1764746245.01135,0.84
1764746245.017665,0.91
1764746245.02385,1.09
1764746245.030206,0.97
1764746245.0363169,0.53
1764746245.042687,0.73
1764746245.048755,1.09
1764746245.055039,0.95
1764746245.061315,0.9
1764746245.067598,0.99
1764746245.073888,1.09
1764746245.080003,1.19
1764746245.086317,0.96
1764746245.0928378,1.02
1764746245.098807,1.23
1764746245.1049888,1.16
1764746245.111295,1.18
1764746245.117593,1.4
1764746245.1238022,1.08
1764746245.130028,0.87
1764746245.136462,1.02
1764746245.142594,1.27
1764746245.148832,1.09
1764746245.155068,0.98
1764746245.163363,1.27
1764746245.1706939,1.25
1764746245.1914968,1.11
1764746245.203425,1.22
1764746245.2039301,1.24
1764746245.204105,1.29
1764746245.2042508,1.32
1764746245.228912,1.27
1764746245.243663,1.4
1764746245.243914,1.28
1764746245.256054,1.29
1764746245.256452,1.48
1764746245.256764,1.3
1764746245.256906,1.32
1764746245.257163,1.43
1764746245.2572842,1.37
1764746245.2613802,1.47
1764746245.26879,1.4
1764746245.279401,1.37
1764746245.280375,1.48
1764746245.28629,1.43
1764746245.292885,1.45
1764746245.298798,1.41
1764746245.305155,1.41
1764746245.31126,1.53
1764746245.317593,1.43
1764746245.3238668,1.52
1764746245.329988,1.59
1764746245.336328,1.26
1764746245.3427489,1.47
1764746245.34872,1.65
1764746245.355,1.5
1764746245.361283,1.52
1764746245.367767,1.44
1764746245.3738618,1.48
1764746245.380037,1.57
1764746245.386359,1.71
1764746245.392525,1.81
1764746245.398703,1.73
1764746245.4050932,1.82
1764746245.411232,1.45
1764746245.4176,1.12
1764746245.423763,1.39
1764746245.4300559,1.45
1764746245.436192,1.28
1764746245.442546,1.37
1764746245.448768,1.36
1764746245.4549801,1.41
1764746245.461237,1.43
1764746245.4675379,1.36
1764746245.47382,1.49
1764746245.479991,1.54
1764746245.486235,1.47
1764746245.4926221,1.54
1764746245.498801,1.49
1764746245.505068,1.49
1764746245.511316,1.71
1764746245.517756,2.38
1764746245.5237749,3.14
1764746245.5299578,3.13
1764746245.536216,2.48
1764746245.542502,1.23
1764746245.5487318,1.34
1764746245.5549738,1.64
1764746245.5612211,1.47
1764746245.567522,1.43
1764746245.573778,1.65
1764746245.579912,1.61
1764746245.586194,1.41
1764746245.5924869,1.57
1764746245.598763,1.63
1764746245.604939,1.66
1764746245.611203,1.71
1764746245.617526,1.53
1764746245.623731,1.61
1764746245.6300402,1.72
1764746245.636149,1.69
1764746245.642474,1.72
1764746245.648718,1.68
1764746245.6549451,1.75
1764746245.661213,1.79
1764746245.667449,1.68
1764746245.673675,1.79
1764746245.6799119,1.81
1764746245.686157,1.84
1764746245.6926012,1.91
1764746245.698672,1.77
1764746245.704972,1.85
1764746245.711191,1.93
1764746245.7174542,1.74
1764746245.723677,1.79
1764746245.729921,1.81
1764746245.736187,1.76
1764746245.742445,1.87
1764746245.748661,1.82
1764746245.7549498,1.82
1764746245.761166,1.86
1764746245.767452,1.75
1764746245.773639,1.91
1764746245.779868,1.89
1764746245.786122,1.84
1764746245.7924201,1.96
1764746245.798655,1.93
1764746245.8049731,1.96
1764746245.811126,1.97
1764746245.817454,1.86
1764746245.8237052,2.01
1764746245.8298938,2.0
1764746245.8361611,1.92
1764746245.8424718,2.02
1764746245.848772,1.91
1764746245.854903,1.92
1764746245.8611588,2.01
1764746245.8674948,1.92
1764746245.873694,1.95
1764746245.8799832,1.96
1764746245.886135,1.93
1764746245.892479,2.03
1764746245.8986502,1.89
1764746245.904907,1.9
1764746245.9111109,2.0
1764746245.917407,1.93
1764746245.92363,2.08
1764746245.9298959,2.04
1764746245.9361658,1.83
1764746245.942406,2.01
1764746245.948666,2.03
1764746245.954916,2.1
1764746245.961119,2.19
1764746245.967359,2.05
1764746245.973643,2.3
1764746245.979875,2.35
1764746245.986157,2.46
1764746245.992341,2.61
1764746245.998647,2.42
1764746246.004831,2.39
1764746246.011115,2.35
1764746246.0173702,2.38
1764746246.023614,2.37
1764746246.029881,2.15
1764746246.036164,2.15
1764746246.0425558,2.32
1764746246.048633,2.6
1764746246.054889,2.4
1764746246.061273,1.89
1764746246.067384,1.85
1764746246.073619,2.23
1764746246.079861,2.15
1764746246.0862029,2.08
1764746246.092424,2.19
1764746246.098652,2.22
1764746246.1048582,2.6
1764746246.111101,3.16
1764746246.117375,3.17
1764746246.123605,3.17
1764746246.129868,3.17
1764746246.136202,2.68
1764746246.142391,1.64
1764746246.148726,1.93
1764746246.154952,2.39
1764746246.1611981,2.16
1764746246.167397,1.87
1764746246.173652,2.14
1764746246.1798332,2.23
1764746246.186174,1.99
1764746246.192469,2.04
1764746246.1986198,2.05
1764746246.204968,2.08
1764746246.211185,2.05
1764746246.21735,1.98
1764746246.223558,2.15
1764746246.229802,1.96
1764746246.236172,1.87
1764746246.242333,2.08
1764746246.248673,2.01
1764746246.2548192,1.91
1764746246.261108,1.96
1764746246.267322,1.91
1764746246.273632,2.02
1764746246.279875,1.97
1764746246.286071,1.92
1764746246.292424,2.06
1764746246.29866,2.1
1764746246.304876,2.17
1764746246.31113,2.11
1764746246.3173819,2.02
1764746246.323651,2.12
1764746246.329839,2.03
1764746246.336084,1.96
1764746246.342352,2.03
1764746246.348688,1.91
1764746246.3548129,1.99
1764746246.361063,2.05
1764746246.3673542,1.9
1764746246.373549,1.95
1764746246.379772,2.05
1764746246.386085,2.0
1764746246.392302,1.95
1764746246.3985522,1.97
1764746246.4048629,1.99
1764746246.411073,1.96
1764746246.417376,1.9
1764746246.423517,2.03
1764746246.4298701,1.98
1764746246.436034,1.9
1764746246.4422982,1.96
1764746246.4485729,1.95
1764746246.4547331,1.99
1764746246.4609752,2.01
1764746246.467277,1.92
1764746246.473526,2.02
1764746246.479831,1.88
1764746246.486061,2.09
1764746246.492327,2.33
1764746246.498548,1.55
1764746246.504862,1.48
1764746246.511043,1.88
1764746246.517341,1.87
1764746246.52355,1.91
1764746246.529758,1.86
1764746246.5360482,2.0
1764746246.5422678,2.16
1764746246.548594,2.12
1764746246.5546901,2.31
1764746246.5609548,2.33
1764746246.5673048,2.17
1764746246.573519,2.32
1764746246.579787,2.21
1764746246.58595,1.89
1764746246.592308,1.8
1764746246.5984871,1.79
1764746246.604692,1.99
1764746246.611058,1.93
1764746246.617322,1.66
1764746246.623517,2.23
1764746246.629735,2.36
1764746246.635985,1.5
1764746246.6422882,1.48
1764746246.648573,1.87
1764746246.6547258,1.96
1764746246.660945,1.63
1764746246.667308,1.74
1764746246.6735291,1.95
1764746246.679734,1.84
1764746246.685973,2.02
1764746246.692283,2.82
1764746246.698555,3.16
1764746246.704753,3.17
1764746246.7219222,3.16
1764746246.767474,2.11
1764746246.768363,1.11
1764746246.768485,1.9
1764746246.768585,2.24
1764746246.7686799,1.73
1764746246.768783,1.62
1764746246.768883,2.15
1764746246.7689862,1.87
1764746246.769088,1.43
1764746246.779973,1.84
1764746246.780129,1.9
1764746246.789751,1.75
1764746246.792208,2.01
1764746246.798574,1.99
1764746246.804918,1.83
1764746246.811033,1.92
1764746246.817162,1.81
1764746246.823671,1.74
1764746246.829813,1.72
1764746246.836004,1.84
1764746246.842326,1.81
1764746246.848449,1.66
1764746246.854738,1.83
1764746246.8609548,1.86
1764746246.8672152,1.86
1764746246.87346,2.01
1764746246.879654,1.92
1764746246.885899,1.68
1764746246.8921862,1.69
1764746246.898422,1.76
1764746246.904702,1.61
1764746246.910958,1.41
1764746246.917264,1.64
1764746246.923472,2.03
1764746246.929634,1.74
1764746246.935969,1.37
1764746246.942162,1.88
1764746246.948399,1.78
1764746246.954698,1.53
1764746246.960913,1.51
1764746246.967221,1.62
1764746246.973387,1.82
1764746246.9796429,1.74
1764746246.98594,1.74
1764746246.992306,2.07
1764746246.998425,2.03
1764746247.004639,2.14
1764746247.010877,2.17
1764746247.01724,2.01
1764746247.023572,2.35
1764746247.029712,1.85
1764746247.036026,1.65
1764746247.042233,1.87
1764746247.0484118,1.88
1764746247.0545988,2.09
1764746247.0610209,2.19
1764746247.0671391,1.66
1764746247.0733829,1.83
1764746247.07966,1.84
1764746247.0859818,2.04
1764746247.092107,1.95
1764746247.09835,1.66
1764746247.1047869,1.92
1764746247.1108239,1.89
1764746247.1171541,1.71
1764746247.123443,2.06
1764746247.1295528,1.99
1764746247.135831,2.12
1764746247.1420958,2.44
1764746247.1484559,1.81
1764746247.15468,1.77
1764746247.160846,2.08
1764746247.1671538,2.01
1764746247.173464,1.94
1764746247.1796732,1.64
1764746247.18593,1.97
1764746247.192189,2.17
1764746247.198376,1.38
1764746247.2046468,1.42
1764746247.210937,1.81
1764746247.2171898,1.84
1764746247.2234392,1.87
1764746247.229723,1.7
1764746247.235924,1.96
1764746247.2421691,1.86
1764746247.248215,1.54
1764746247.25464,1.9
1764746247.260812,2.04
1764746247.26707,2.46
1764746247.273314,3.16
1764746247.279689,3.16
1764746247.2859142,3.16
1764746247.292325,2.77
1764746247.298271,1.2
1764746247.304585,1.53
1764746247.3109398,1.95
1764746247.317141,1.69
1764746247.3234031,2.0
1764746247.329704,1.87
1764746247.335917,1.66
1764746247.3421068,1.75
1764746247.348368,1.83
1764746247.3547578,1.97
1764746247.360928,1.58
1764746247.3670442,1.52
1764746247.373466,1.69
1764746247.3796139,1.66
1764746247.385946,1.97
1764746247.392185,2.03
1764746247.398311,1.8
1764746247.404803,1.62
1764746247.410914,1.47
1764746247.417088,1.88
1764746247.423467,2.12
1764746247.429675,1.36
1764746247.4358468,1.56
1764746247.442127,1.99
1764746247.448349,1.65
1764746247.454892,1.72
1764746247.4608269,1.77
1764746247.467059,1.82
1764746247.473535,1.81
1764746247.4795089,1.51
1764746247.485815,1.62
1764746247.492085,1.93
1764746247.498284,1.62
1764746247.504645,1.75
1764746247.510756,1.81
1764746247.517118,1.56
1764746247.5234141,1.69
1764746247.5295901,1.69
1764746247.535776,1.7
1764746247.542031,1.76
1764746247.5482838,1.43
1764746247.554581,1.69
1764746247.560853,1.7
1764746247.567071,1.59
1764746247.573449,1.61
1764746247.579614,1.58
1764746247.5858612,1.71
1764746247.5921972,1.79
1764746247.5982442,1.59
1764746247.604736,1.85
1764746247.6108081,1.67
1764746247.617116,1.42
1764746247.6234958,1.62
1764746247.6296241,1.4
1764746247.6358771,1.35
1764746247.642324,1.52
1764746247.6482382,1.43
1764746247.6545138,1.57
1764746247.660755,1.36
1764746247.667053,1.5
1764746247.6734788,1.61
1764746247.67962,1.53
1764746247.685861,1.68
1764746247.6921458,1.65
1764746247.698302,1.45
1764746247.704841,1.75
1764746247.7108328,1.34
1764746247.7171168,1.33
1764746247.7233841,1.87
1764746247.729525,1.61
1764746247.7357981,1.37
1764746247.7421172,1.74
1764746247.748225,1.57
1764746247.754525,1.35
1764746247.7607381,1.24
1764746247.767067,1.41
1764746247.773695,1.58
1764746247.779476,1.02
1764746247.785751,1.17
1764746247.792015,1.33
1764746247.798188,0.94
1764746247.804509,1.14
1764746247.8107488,1.28
1764746247.816972,1.03
1764746247.82328,1.1
1764746247.82946,1.29
1764746247.835766,1.25
1764746247.84204,1.1
1764746247.848139,1.7
1764746247.854448,2.81
1764746247.860693,2.97
1764746247.867021,2.29
1764746247.873384,1.51
1764746247.879512,0.74
1764746247.8858361,0.9
1764746247.891941,1.07
1764746247.898269,1.0
1764746247.9046028,1.06
1764746247.911086,0.97
1764746247.91714,1.14
1764746247.923268,1.15
1764746247.9294772,1.06
1764746247.935786,1.39
1764746247.9421172,1.34
1764746247.9482272,1.08
1764746247.954539,1.34
1764746247.960726,1.36
1764746247.967018,0.85
1764746247.973346,1.12
1764746247.979483,1.33
1764746247.985745,1.3
1764746247.9920902,1.41
1764746247.998274,1.21
1764746248.004478,1.42
1764746248.010668,1.45
1764746248.016981,1.4
1764746248.023229,1.81
1764746248.0294259,1.48
1764746248.035787,1.32
1764746248.0420852,1.21
1764746248.048152,1.17
1764746248.0544808,1.57
1764746248.060735,1.43
1764746248.0669959,1.18
1764746248.0732758,1.43
1764746248.079446,1.45
1764746248.0857248,1.44
1764746248.092041,1.41
1764746248.098162,1.3
1764746248.104435,1.63
1764746248.1106591,1.6
1764746248.116916,1.66
1764746248.123282,1.65
1764746248.1294699,1.16
1764746248.135725,1.37
1764746248.141952,1.65
1764746248.148124,1.49
1764746248.154592,1.54
1764746248.1608498,1.46
1764746248.166956,1.47
1764746248.173646,1.72
1764746248.1793761,1.54
1764746248.185684,1.58
1764746248.1983418,1.63
1764746248.218296,1.64
1764746248.2380428,1.79
1764746248.239153,1.32
1764746248.239312,1.44
1764746248.239435,1.66
1764746248.2395499,1.61
1764746248.253286,1.7
1764746248.2542431,1.7
1764746248.261604,1.39
1764746248.261736,1.69
1764746248.261834,1.68
1764746248.269875,1.49
1764746248.278825,1.68
1764746248.279478,1.8
1764746248.285693,1.79
1764746248.300915,1.6
1764746248.301674,1.57
1764746248.3043609,1.87
1764746248.31065,1.94
1764746248.316958,1.82
1764746248.3232598,1.91
1764746248.329476,1.84
1764746248.335777,1.85
1764746248.34193,1.63
1764746248.348135,1.48
1764746248.35433,1.74
1764746248.360659,1.78
1764746248.3669062,1.49
1764746248.373237,1.5
1764746248.3794188,1.39
1764746248.3856,1.57
1764746248.3919759,1.69
1764746248.398175,1.44
1764746248.4044049,1.55
1764746248.41058,1.47
1764746248.416865,1.53
1764746248.423434,1.85
1764746248.429441,1.44
1764746248.435643,1.84
1764746248.441872,2.74
1764746248.448138,3.1
1764746248.4544861,3.04
1764746248.460641,2.16
1764746248.4669812,1.07
1764746248.473248,1.26
1764746248.479382,1.32
1764746248.48559,1.3
1764746248.491877,1.34
1764746248.498102,1.26
1764746248.504422,1.3
1764746248.510644,1.37
1764746248.516851,1.52
1764746248.523345,1.43
1764746248.529342,1.1
1764746248.5355651,1.24
1764746248.541875,1.33
1764746248.548053,1.22
1764746248.554401,1.5
1764746248.56055,1.42
1764746248.566901,1.13
1764746248.5731719,1.24
1764746248.5811682,1.19
1764746248.5856361,1.33
1764746248.591891,1.4
1764746248.5982661,1.25
1764746248.604418,1.5
1764746248.610643,1.46
1764746248.616877,1.22
1764746248.623192,1.44
1764746248.629714,1.29
1764746248.635564,1.29
1764746248.6418052,1.37
1764746248.648088,1.24
1764746248.654391,1.3
1764746248.660583,1.31
1764746248.6667762,1.14
1764746248.6732569,1.19
1764746248.679424,1.1
1764746248.685576,1.31
1764746248.6918988,1.39
1764746248.698132,1.19
1764746248.704371,1.3
1764746248.710596,1.22
1764746248.7168262,1.13
1764746248.7233999,1.42
1764746248.7293718,1.39
1764746248.735646,1.46
1764746248.741962,1.33
1764746248.7481222,0.91
1764746248.754376,1.29
1764746248.760524,1.37
1764746248.7668512,1.16
1764746248.773196,1.31
1764746248.7793012,1.27
1764746248.785467,1.3
1764746248.7917912,1.37
1764746248.7980149,1.27
1764746248.80423,1.34
1764746248.8105311,1.3
1764746248.8168068,1.17
1764746248.823103,1.38
1764746248.829252,1.2
1764746248.8356,1.16
1764746248.841856,1.28
1764746248.848046,1.2
1764746248.854269,1.36
1764746248.86061,1.17
1764746248.866818,1.14
1764746248.873101,1.45
1764746248.879282,1.39
1764746248.885578,1.57
1764746248.891795,1.76
1764746248.8981729,1.4
1764746248.9045272,1.23
1764746248.9107049,1.42
1764746248.916912,1.42
1764746248.9231958,1.31
1764746248.929274,1.1
1764746248.9355772,1.19
1764746248.941795,1.11
1764746248.948125,0.95
1764746248.954392,1.19
1764746248.960806,1.21
1764746248.966744,1.05
1764746248.9733372,1.18
1764746248.979251,1.19
1764746248.9854898,1.3
1764746248.991977,1.36
1764746248.998282,1.04
1764746249.0044029,1.11
1764746249.0105758,1.22
1764746249.0167658,1.34
1764746249.023255,2.36
1764746249.029254,2.81
1764746249.035625,2.63
1764746249.0418618,2.09
1764746249.048001,0.78
1764746249.054305,0.74
1764746249.060554,1.3
1764746249.066989,1.23
1764746249.073759,1.12
1764746249.079427,1.05
1764746249.0855591,1.19
1764746249.091798,1.22
1764746249.098009,1.1
1764746249.104345,1.34
1764746249.1104488,1.25
1764746249.1167538,1.24
1764746249.123467,1.43
1764746249.129216,1.05
1764746249.135523,0.96
1764746249.141883,1.25
1764746249.1480498,1.25
1764746249.154231,1.31
1764746249.1605172,1.21
1764746249.166692,1.2
1764746249.173324,1.37
1764746249.179394,1.2
1764746249.1855931,1.25
1764746249.191746,1.42
1764746249.198074,1.32
1764746249.2042189,1.44
1764746249.2105129,1.52
1764746249.216652,1.38
1764746249.223213,1.58
1764746249.2292101,1.29
1764746249.235578,1.09
1764746249.2419,1.41
1764746249.248011,1.35
1764746249.25431,1.39
1764746249.260521,1.36
1764746249.266722,1.32
1764746249.273203,1.49
1764746249.279286,1.41
1764746249.285525,1.37
1764746249.291919,1.48
1764746249.297987,1.43
1764746249.304234,1.51
1764746249.310443,1.62
1764746249.3166652,1.45
1764746249.323363,1.4
1764746249.329236,1.52
1764746249.335636,1.57
1764746249.341759,1.36
1764746249.347899,1.27
1764746249.354125,1.57
1764746249.3604422,1.52
1764746249.3667111,1.44
1764746249.373655,1.64
1764746249.379215,1.46
1764746249.385476,1.54
1764746249.3917172,1.69
1764746249.3979,1.47
1764746249.404258,1.6
1764746249.410387,1.7
1764746249.416752,1.52
1764746249.423698,1.35
1764746249.429211,1.34
1764746249.435499,1.56
1764746249.441752,1.62
1764746249.447924,1.42
1764746249.4543,1.67
1764746249.4604669,1.66
1764746249.466683,1.57
1764746249.4733608,2.0
1764746249.4793081,1.89
1764746249.485516,1.64
1764746249.4918709,1.81
1764746249.49792,1.75
1764746249.504252,1.58
1764746249.510397,1.4
1764746249.5166888,1.5
1764746249.524019,1.66
1764746249.529189,1.38
1764746249.535616,1.43
1764746249.541686,1.56
1764746249.5479438,1.28
1764746249.554272,1.49
1764746249.560322,1.49
1764746249.566623,1.58
1764746249.573154,1.7
1764746249.579249,1.3
1764746249.5857658,1.42
1764746249.592036,1.63
1764746249.5979269,1.62
1764746249.604212,2.34
1764746249.610477,3.13
1764746249.616865,3.12
1764746249.623111,2.74
1764746249.629185,1.13
1764746249.635396,0.95
1764746249.64167,1.7
1764746249.6478488,1.57
1764746249.654311,1.48
1764746249.660356,1.56
1764746249.6667142,1.45
1764746249.6768792,1.6
1764746249.690424,1.55
1764746249.690992,1.5
1764746249.691639,1.59
1764746249.702276,1.52
1764746249.726709,1.66
1764746249.728058,1.67
1764746249.744529,1.63
1764746249.751325,1.77
1764746249.759549,1.58
1764746249.759638,1.51
1764746249.759701,1.64
1764746249.7597592,1.54
1764746249.759989,1.74
1764746249.760963,1.77
1764746249.766609,1.58
1764746249.7774851,1.69
1764746249.7801468,1.71
1764746249.785389,1.8
1764746249.792263,1.84
1764746249.797889,1.77
1764746249.804084,1.77
1764746249.810237,1.64
1764746249.8165681,1.69
1764746249.8228328,1.75
1764746249.829024,1.65
1764746249.835268,1.69
1764746249.8414972,1.77
1764746249.847747,1.64
1764746249.854086,1.87
1764746249.860265,1.81
1764746249.866596,1.67
1764746249.8728352,1.87
1764746249.879456,1.76
1764746249.885282,1.83
1764746249.8916,1.96
1764746249.897799,1.96
1764746249.904035,1.96
1764746249.91028,1.58
1764746249.916511,1.48
1764746249.922776,1.87
1764746249.929031,1.81
1764746249.9352388,1.79
1764746249.941469,1.89
1764746249.947737,1.72
1764746249.9539928,1.89
1764746249.9602518,1.88
1764746249.966557,1.68
1764746249.973057,1.99
1764746249.979024,1.96
1764746249.985337,1.82
1764746249.991575,1.89
1764746249.9977942,1.85
1764746250.004023,1.9
1764746250.0102751,1.8
1764746250.0165062,1.84
1764746250.022851,2.04
1764746250.0290911,1.81
1764746250.035199,1.8
1764746250.041497,2.14
1764746250.04774,2.13
1764746250.054174,2.26
1764746250.060158,2.13
1764746250.066491,2.01
1764746250.072781,2.34
1764746250.079102,1.89
1764746250.0852349,1.63
1764746250.091433,1.95
1764746250.097781,1.86
1764746250.10403,1.73
1764746250.110216,1.7
1764746250.116578,1.84
1764746250.122808,1.99
1764746250.129035,1.77
1764746250.135277,1.89
1764746250.141461,1.95
1764746250.1478488,1.84
1764746250.153964,2.02
1764746250.160167,1.91
1764746250.1664808,1.95
1764746250.1728482,2.53
1764746250.178943,2.89
1764746250.185289,3.14
1764746250.191479,3.15
1764746250.197812,3.08
1764746250.2040021,2.09
1764746250.2102,1.21
1764746250.216501,1.63
1764746250.22277,2.11
1764746250.2289422,1.85
1764746250.235209,1.73
1764746250.24142,1.95
1764746250.2477179,1.92
1764746250.253962,2.07
1764746250.260184,1.92
1764746250.266398,1.93
1764746250.2727292,1.9
1764746250.278975,1.59
1764746250.285252,2.01
1764746250.291439,2.04
1764746250.297737,1.78
1764746250.304002,2.08
1764746250.3101702,2.12
1764746250.3165052,1.87
1764746250.322748,1.91
1764746250.328968,1.88
1764746250.335253,2.03
1764746250.3414872,2.16
1764746250.3477561,1.98
1764746250.3539479,2.08
1764746250.360204,2.07
1764746250.366434,2.09
1764746250.372756,2.08
1764746250.379031,1.8
1764746250.3851898,1.88
1764746250.3915,2.1
1764746250.3977118,1.98
1764746250.403921,2.11
1764746250.4101539,1.95
1764746250.416395,1.73
1764746250.422737,2.02
1764746250.428948,1.9
1764746250.435223,1.89
1764746250.441429,2.1
1764746250.4477289,1.87
1764746250.453894,1.98
1764746250.460214,1.88
1764746250.466486,1.83
1764746250.472715,2.07
1764746250.478871,1.84
1764746250.485141,1.86
1764746250.491422,1.9
1764746250.497739,1.7
1764746250.5039308,1.94
1764746250.510174,1.83
1764746250.516375,1.72
1764746250.522652,2.05
1764746250.528901,1.89
1764746250.535166,1.85
1764746250.541408,1.73
1764746250.547754,1.86
1764746250.553911,2.03
1764746250.560144,1.78
1764746250.566466,1.7
1764746250.57268,1.69
1764746250.578871,1.58
1764746250.585131,1.84
1764746250.591628,1.97
1764746250.5976791,1.56
1764746250.603888,1.58
1764746250.610105,1.75
1764746250.616359,1.9
1764746250.622632,2.12
1764746250.6289148,1.76
1764746250.635126,1.65
1764746250.6414132,1.98
1764746250.647698,1.88
1764746250.654499,1.92
1764746250.660449,1.88
1764746250.666493,1.87
1764746250.672842,1.9
1764746250.679244,1.53
1764746250.685261,1.47
1764746250.691427,1.59
1764746250.697778,1.53
1764746250.703957,1.84
1764746250.710214,1.54
1764746250.716466,1.28
1764746250.722652,1.51
1764746250.729001,1.51
1764746250.7351592,1.64
1764746250.741339,1.59
1764746250.747631,1.41
1764746250.753899,1.66
1764746250.7601962,1.76
1764746250.766516,2.29
1764746250.7726452,3.16
1764746250.7789671,3.13
1764746250.785096,2.83
1764746250.7913861,1.64
1764746250.797608,0.71
1764746250.8039382,1.51
1764746250.810179,1.7
1764746250.816362,1.4
1764746250.822645,1.5
1764746250.828948,1.31
1764746250.835108,1.37
1764746250.841408,1.52
1764746250.847591,1.55
1764746250.8541088,1.61
1764746250.8601978,1.34
1764746250.8663769,1.38
1764746250.8726752,1.82
1764746250.878927,1.73
1764746250.8850932,1.59
1764746250.891354,1.35
1764746250.897611,1.35
1764746250.903886,1.72
1764746250.91012,1.54
1764746250.916373,1.49
1764746250.922672,1.62
1764746250.9289112,1.52
1764746250.9350688,1.74
1764746250.941333,1.71
1764746250.947546,1.47
1764746250.953859,1.82
1764746250.960035,1.75
1764746250.9663029,1.48
1764746250.972588,1.6
1764746250.978843,1.64
1764746250.985062,1.74
1764746250.9912739,1.65
1764746250.997546,1.46
1764746251.0038452,1.69
1764746251.010036,1.6
1764746251.016292,1.57
1764746251.02266,1.75
1764746251.028809,1.52
1764746251.0350919,1.61
1764746251.041297,1.73
1764746251.0476081,1.59
1764746251.05378,1.8
1764746251.059999,1.64
1764746251.066207,1.58
1764746251.072533,1.79
1764746251.078793,1.69
1764746251.085026,1.88
1764746251.091285,1.88
1764746251.097565,1.3
1764746251.1038349,1.45
1764746251.110073,1.76
1764746251.116208,1.6
1764746251.12259,1.69
1764746251.128787,1.47
1764746251.13506,1.74
1764746251.14131,1.76
1764746251.14749,1.5
1764746251.153835,1.66
1764746251.166263,1.63
1764746251.183918,1.68
1764746251.205774,1.63
1764746251.210989,1.44
1764746251.211221,1.51
1764746251.211401,1.49
1764746251.211592,1.45
1764746251.22125,1.68
1764746251.231024,1.58
1764746251.241002,1.5
1764746251.241274,1.66
1764746251.241481,1.52
1764746251.2416818,1.53
1764746251.241892,1.74
1764746251.2781372,1.53
1764746251.2783518,1.83
1764746251.2785301,1.9
1764746251.279368,1.62
1764746251.283029,1.84
1764746251.283644,1.92
1764746251.285194,1.7
1764746251.2913458,1.71
1764746251.297523,1.77
1764746251.307658,1.84
1764746251.3100429,1.44
1764746251.316438,1.36
1764746251.322783,1.7
1764746251.328779,1.41
1764746251.335051,1.52
1764746251.341347,1.54
1764746251.3475862,1.36
1764746251.353836,1.57
1764746251.360047,1.46
1764746251.366291,1.31
1764746251.3725739,1.42
1764746251.3787131,1.2
1764746251.3850229,1.43
1764746251.3912451,1.47
1764746251.39747,1.34
1764746251.40384,2.01
1764746251.4100711,2.77
1764746251.4162729,2.88
1764746251.422459,2.67
1764746251.428737,1.31
1764746251.435107,0.8
1764746251.44119,1.38
1764746251.4474921,1.33
1764746251.453855,1.18
1764746251.46,1.13
1764746251.466244,1.36
1764746251.472682,1.34
1764746251.47871,0.89
1764746251.4849448,1.1
1764746251.4911768,1.37
1764746251.4975,1.16
1764746251.504094,1.35
1764746251.5099251,1.28
1764746251.5162308,1.15
1764746251.52247,1.31
1764746251.5286882,1.22
1764746251.535108,1.36
1764746251.541245,1.51
1764746251.547489,1.19
1764746251.553727,1.18
1764746251.5600698,1.1
1764746251.566221,1.16
1764746251.5724711,1.5
1764746251.57866,1.26
1764746251.5849311,1.24
1764746251.591213,1.43
1764746251.597512,1.21
1764746251.603787,1.36
1764746251.6100202,1.32
1764746251.616236,1.27
1764746251.622398,1.44
1764746251.62864,1.23
1764746251.635029,1.28
1764746251.641155,1.36
1764746251.647458,1.15
1764746251.6537821,1.34
1764746251.65996,1.32
1764746251.6661482,1.28
1764746251.67244,1.5
1764746251.678731,1.23
1764746251.684947,1.28
1764746251.691134,1.55
1764746251.697473,1.36
1764746251.703722,1.48
1764746251.7099361,1.35
1764746251.7162051,1.28
1764746251.7224011,1.66
1764746251.728665,1.5
1764746251.73493,1.62
1764746251.741125,1.87
1764746251.747444,1.17
1764746251.753721,1.37
1764746251.7599769,1.27
1764746251.766143,1.09
1764746251.7723799,1.44
1764746251.77862,1.42
1764746251.784961,1.46
1764746251.791106,1.37
1764746251.797421,1.3
1764746251.80367,1.73
1764746251.809941,1.45
1764746251.816183,1.14
1764746251.822397,1.52
1764746251.8286002,1.22
1764746251.8348958,1.26
1764746251.841133,1.45
1764746251.847425,1.21
1764746251.854017,1.39
1764746251.859931,1.31
1764746251.866304,1.27
1764746251.872464,1.46
1764746251.8787122,1.21
1764746251.884972,1.28
1764746251.891142,1.39
1764746251.897482,1.27
1764746251.9037719,1.67
1764746251.909847,1.34
1764746251.916091,1.03
1764746251.922325,1.49
1764746251.928607,1.32
1764746251.9349692,1.39
1764746251.9411268,1.58
1764746251.947415,1.49
1764746251.9536939,1.55
1764746251.959889,1.42
1764746251.966153,1.47
1764746251.9724622,1.57
1764746251.978633,1.18
1764746251.984906,1.31
1764746251.9911559,1.35
1764746251.9973602,1.04
1764746252.003962,1.24
1764746252.009782,1.22
1764746252.01615,1.19
1764746252.022345,1.34
1764746252.028725,1.03
1764746252.034846,1.17
1764746252.0412421,1.31
1764746252.047381,1.09
1764746252.053695,1.2
1764746252.059923,1.22
1764746252.0661912,1.27
1764746252.072489,1.98
1764746252.078735,2.56
1764746252.085057,2.82
1764746252.091323,2.61
1764746252.0974169,1.31
1764746252.103843,0.93
1764746252.109849,1.32
1764746252.116142,1.21
1764746252.122514,1.25
1764746252.1285398,1.07
1764746252.1349728,1.08
1764746252.1412532,1.23
1764746252.147268,1.07
1764746252.1536279,1.24
1764746252.159877,1.26
1764746252.166204,1.17
1764746252.172431,1.31
1764746252.178693,1.26
1764746252.1850398,1.36
1764746252.1911628,1.33
1764746252.19741,1.18
1764746252.203709,1.45
1764746252.209815,1.39
1764746252.2161732,1.18
1764746252.2224069,1.36
1764746252.228601,1.24
1764746252.234903,1.33
1764746252.241209,1.47
1764746252.2473888,1.38
1764746252.2535858,1.51
1764746252.25987,1.42
1764746252.2661738,1.43
1764746252.272352,1.6
1764746252.278635,1.35
1764746252.2849238,1.37
1764746252.291054,1.55
1764746252.297347,1.32
1764746252.303576,1.49
1764746252.309859,1.52
1764746252.316105,1.31
1764746252.32234,1.46
1764746252.328616,1.43
1764746252.334801,1.45
1764746252.3411121,1.52
1764746252.347334,1.43
1764746252.3537128,1.53
1764746252.359828,1.51
1764746252.3660438,1.49
1764746252.372279,1.62
1764746252.3785448,1.39
1764746252.384893,1.43
1764746252.390997,1.56
1764746252.397302,1.46
1764746252.403625,1.6
1764746252.409945,1.55
1764746252.416128,1.42
1764746252.4223511,1.69
1764746252.428546,1.66
1764746252.4349282,1.71
1764746252.441207,1.64
1764746252.4472902,1.28
1764746252.4536161,1.5
1764746252.459693,1.64
1764746252.4661949,1.65
1764746252.472319,1.69
1764746252.4785159,1.44
1764746252.4848151,1.49
1764746252.491018,1.61
1764746252.497317,1.51
1764746252.503603,1.58
1764746252.50974,1.52
1764746252.516077,1.45
1764746252.522281,1.64
1764746252.5285308,1.53
1764746252.5348322,1.59
1764746252.541057,1.62
1764746252.547256,1.37
1764746252.553547,1.61
1764746252.559826,1.69
1764746252.5660942,1.56
1764746252.572355,1.58
1764746252.578541,1.36
1764746252.5848498,1.51
1764746252.590965,1.73
1764746252.59728,1.59
1764746252.603623,1.72
1764746252.6098502,1.7
1764746252.616009,1.66
1764746252.622524,2.0
1764746252.6285949,1.91
1764746252.634754,1.9
1764746252.641099,1.89
1764746252.659175,1.73
1764746252.666424,1.75
1764746252.666715,1.52
1764746252.66688,1.44
1764746252.705503,1.71
1764746252.70727,1.45
1764746252.710898,1.47
1764746252.7116082,1.66
1764746252.711773,1.52
1764746252.71188,1.52
1764746252.711935,1.5
1764746252.7184908,1.52
1764746252.727684,1.67
1764746252.728529,1.51
1764746252.7346811,1.57
1764746252.743328,1.6
1764746252.757219,1.75
1764746252.7574668,2.62
1764746252.7596521,3.07
1764746252.7659452,2.92
1764746252.772235,2.48
1764746252.778494,1.14
1764746252.7847428,1.09
1764746252.791201,1.69
1764746252.79728,1.56
1764746252.803576,1.49
1764746252.809673,1.47
1764746252.815974,1.44
1764746252.822201,1.58
1764746252.828426,1.48
1764746252.834722,1.47
1764746252.840873,1.55
1764746252.847189,1.45
1764746252.853424,1.59
1764746252.859647,1.53
1764746252.865948,1.46
1764746252.872161,1.64
1764746252.878412,1.56
1764746252.884937,1.57
1764746252.890908,1.68
1764746252.897165,1.53
1764746252.903445,1.62
1764746252.9096751,1.61
1764746252.915964,1.56
1764746252.922196,1.75
1764746252.928405,1.92
1764746252.9347498,2.44
1764746252.941108,1.33
1764746252.947243,0.92
1764746252.953585,2.26
1764746252.959816,1.72
1764746252.965922,0.9
1764746252.9721868,1.63
1764746252.978393,1.81
1764746252.9846752,1.56
1764746252.990825,1.59
1764746252.99713,1.59
1764746253.003819,1.78
1764746253.009744,1.79
1764746253.016001,1.5
1764746253.0222049,1.6
1764746253.028356,1.69
1764746253.0347881,1.71
1764746253.040936,1.63
1764746253.047125,1.57
1764746253.05377,1.83
1764746253.059627,1.66
1764746253.065865,1.51
1764746253.072087,1.79
1764746253.07837,1.75
1764746253.084865,1.8
1764746253.090998,1.79
1764746253.09712,1.51
1764746253.103489,1.69
1764746253.1096268,1.68
1764746253.115953,1.52
1764746253.122141,1.71
1764746253.128402,1.65
1764746253.134562,1.69
1764746253.140897,1.73
1764746253.147101,1.58
1764746253.1534631,1.82
1764746253.1596491,1.81
1764746253.165884,1.67
1764746253.1721358,1.78
1764746253.178314,1.76
1764746253.1845891,1.66
1764746253.190868,1.74
1764746253.19724,1.62
1764746253.2034078,1.59
1764746253.209586,1.62
1764746253.2158332,1.65
1764746253.222123,1.76
1764746253.2283819,1.65
1764746253.2346492,1.74
1764746253.2407959,1.85
1764746253.247092,1.74
1764746253.253431,1.87
1764746253.2595851,1.9
1764746253.2658172,2.0
1764746253.272083,2.18
1764746253.2783391,1.9
1764746253.284641,2.07
1764746253.2909062,2.2
1764746253.297132,1.54
1764746253.303375,1.51
1764746253.309707,1.72
1764746253.315936,1.58
1764746253.322143,1.63
1764746253.328267,1.53
1764746253.334611,1.65
1764746253.340767,1.8
1764746253.3470552,1.55
1764746253.353438,1.63
1764746253.359643,1.65
1764746253.3659499,1.63
1764746253.372122,1.66
1764746253.37828,1.47
1764746253.384599,1.67
1764746253.390785,2.04
1764746253.397131,2.53
1764746253.403552,3.06
1764746253.409525,3.01
1764746253.415926,2.35
1764746253.422132,0.99
1764746253.4283452,1.06
1764746253.4346628,1.97
1764746253.441011,1.79
1764746253.4471319,1.22
1764746253.453349,1.56
1764746253.4597728,1.73
1764746253.465983,1.67
1764746253.4721658,1.53
1764746253.4783869,1.37
1764746253.484597,1.66
1764746253.490895,1.73
1764746253.49706,1.39
1764746253.503381,1.53
1764746253.509695,1.72
1764746253.515928,1.54
1764746253.5220091,1.55
1764746253.528342,1.57
1764746253.5345972,1.64
1764746253.540828,1.73
1764746253.5470662,1.59
1764746253.5534122,1.72
1764746253.559687,1.76
1764746253.565804,1.66
1764746253.572004,1.69
1764746253.578729,1.56
1764746253.585269,1.76
1764746253.590731,1.8
1764746253.597107,1.65
1764746253.603302,1.83
1764746253.609462,1.77
1764746253.615825,1.67
1764746253.6220632,1.75
1764746253.628267,1.63
1764746253.6345441,1.77
1764746253.640718,1.71
1764746253.647007,1.52
1764746253.653224,1.77
1764746253.659499,1.7
1764746253.665757,1.57
1764746253.6720278,1.84
1764746253.678257,1.78
1764746253.6845372,1.69
1764746253.6908522,1.87
1764746253.697132,1.66
1764746253.703244,1.89
1764746253.709634,1.89
1764746253.715749,1.47
1764746253.721969,1.5
1764746253.728422,1.68
1764746253.734566,1.84
1764746253.740864,1.87
1764746253.7469819,1.68
1764746253.7533062,1.87
1764746253.75948,1.87
1764746253.765772,1.73
1764746253.7719638,1.83
1764746253.778211,1.73
1764746253.7846038,1.81
1764746253.790856,1.77
1764746253.797081,1.68
1764746253.8033621,1.97
1764746253.80969,1.81
1764746253.815836,1.66
1764746253.822078,1.82
1764746253.828324,1.75
1764746253.83492,1.83
1764746253.8409111,1.98
1764746253.847001,1.74
1764746253.853274,1.86
1764746253.859533,1.78
1764746253.8657658,1.97
1764746253.871934,2.17
1764746253.8781571,1.71
1764746253.884715,1.79
1764746253.890707,2.03
1764746253.896994,2.1
1764746253.903251,2.09
1764746253.90944,2.0
1764746253.915863,1.82
1764746253.9220328,1.83
1764746253.928193,1.8
1764746253.934645,1.91
1764746253.940916,1.89
1764746253.947037,1.49
1764746253.953354,1.62
1764746253.9596019,1.74
1764746253.965819,1.75
1764746253.9719622,1.88
1764746253.978194,1.73
1764746253.984591,1.75
1764746253.9908118,1.73
1764746253.996972,1.67
1764746254.003247,2.04
1764746254.00946,2.03
1764746254.015703,2.32
1764746254.022132,3.11
1764746254.0283499,3.14
1764746254.034485,3.14
1764746254.04085,2.5
1764746254.046956,0.91
1764746254.053579,1.43
1764746254.059689,1.96
1764746254.0657,1.92
1764746254.0719712,1.77
1764746254.078323,1.53
1764746254.084498,1.69
1764746254.095768,1.84
1764746254.1201532,1.58
1764746254.135733,1.82
1764746254.135923,1.88
1764746254.136071,1.62
1764746254.136238,1.84
1764746254.136378,1.45
1764746254.136534,1.49
1764746254.154052,1.77
1764746254.1650822,1.5
1764746254.165241,1.68
1764746254.168134,1.67
1764746254.168309,1.61
1764746254.172448,1.81
1764746254.178237,1.53
1764746254.184661,1.81
1764746254.194498,2.06
1764746254.197452,1.49
1764746254.20324,1.46
1764746254.209655,1.67
1764746254.2156658,1.73
1764746254.221901,1.64
1764746254.228247,1.38
1764746254.234499,1.62
1764746254.240653,1.63
1764746254.246955,1.43
1764746254.253205,1.64
1764746254.259456,1.67
1764746254.2656798,1.59
1764746254.27194,1.79
1764746254.27808,1.5
1764746254.28469,1.39
1764746254.290626,1.52
1764746254.296909,1.49
1764746254.303242,1.58
1764746254.309497,1.44
1764746254.3158479,1.42
1764746254.3218591,1.66
1764746254.328117,1.46
1764746254.334552,1.51
1764746254.340683,1.6
1764746254.347018,1.55
1764746254.353271,1.73
1764746254.359466,1.45
1764746254.3656452,1.51
1764746254.3718889,1.79
1764746254.3781471,1.29
1764746254.384458,1.39
1764746254.390641,1.8
1764746254.396815,1.53
1764746254.4032068,1.38
1764746254.409415,1.58
1764746254.415692,1.57
1764746254.4219441,1.61
1764746254.428056,1.58
1764746254.434616,1.68
1764746254.440643,1.56
1764746254.446931,1.3
1764746254.453142,1.47
1764746254.459403,1.58
1764746254.465621,1.57
1764746254.471833,1.78
1764746254.4780521,1.54
1764746254.48474,1.48
1764746254.490591,1.74
1764746254.496756,1.74
1764746254.503103,1.84
1764746254.509343,1.7
1764746254.5156171,1.76
1764746254.52184,2.0
1764746254.528074,1.56
1764746254.534697,1.3
1764746254.540573,1.32
1764746254.5467992,1.46
1764746254.55309,1.64
1764746254.5594292,1.18
1764746254.5655649,1.06
1764746254.571817,1.52
1764746254.578111,1.47
1764746254.584554,1.51
1764746254.5905979,1.29
1764746254.5969129,1.04
1764746254.603101,1.63
1764746254.6093051,1.7
1764746254.615544,1.48
1764746254.6217191,2.36
1764746254.628025,2.78
1764746254.634506,3.13
1764746254.6405098,2.63
1764746254.646784,0.69
1764746254.6533408,0.71
1764746254.659279,1.41
1764746254.665473,1.3
1764746254.671711,1.29
1764746254.678092,1.24
1764746254.684565,1.47
1764746254.6904662,1.47
1764746254.69679,0.9
1764746254.7031062,1.16
1764746254.709267,1.4
1764746254.715513,1.22
1764746254.7217731,1.2
1764746254.727991,1.02
1764746254.734368,1.34
1764746254.740556,1.32
1764746254.746769,1.09
1764746254.753,1.4
1764746254.759289,1.26
1764746254.7654872,1.16
1764746254.77173,1.51
1764746254.7780569,1.5
1764746254.784272,1.42
1764746254.790533,1.13
1764746254.796962,1.04
1764746254.8033369,1.29
1764746254.8094652,1.39
1764746254.815546,1.15
1764746254.8217862,1.18
1764746254.828086,1.29
1764746254.83433,1.5
1764746254.8404639,1.32
1764746254.846751,0.96
1764746254.853003,1.35
1764746254.859297,1.47
1764746254.8655722,1.26
1764746254.871702,1.18
1764746254.878051,1.09
1764746254.8843,1.35
1764746254.890422,1.33
1764746254.8968132,1.27
1764746254.903002,1.39
1764746254.9092999,1.06
1764746254.915468,1.14
1764746254.921681,1.4
1764746254.9280288,1.36
1764746254.934536,1.52
1764746254.940429,1.37
1764746254.946709,1.06
1764746254.953014,1.35
1764746254.959232,1.29
1764746254.965633,1.36
1764746254.9717,1.57
1764746254.978045,1.02
1764746254.984274,1.2
1764746254.990474,1.43
1764746254.99679,1.33
1764746255.0030131,1.27
1764746255.009203,1.29
1764746255.015434,1.3
1764746255.021687,1.36
1764746255.02805,1.26
1764746255.034299,1.48
1764746255.040556,1.37
1764746255.0467682,1.11
1764746255.053212,1.58
1764746255.0595012,1.4
1764746255.065541,0.95
1764746255.071668,1.39
1764746255.07797,1.57
1764746255.0843039,1.37
1764746255.090506,1.33
1764746255.0968661,1.59
1764746255.102989,1.81
1764746255.1092448,1.5
1764746255.115458,1.59
1764746255.121674,1.74
1764746255.12786,1.47
1764746255.13423,1.52
1764746255.140436,1.42
1764746255.14666,1.2
1764746255.153017,1.2
1764746255.159181,1.26
1764746255.165427,1.43
1764746255.171689,1.52
1764746255.17789,1.21
1764746255.184232,1.26
1764746255.190472,1.61
1764746255.196716,1.55
1764746255.203218,1.2
1764746255.209305,1.06
1764746255.215494,1.54
1764746255.221619,1.84
1764746255.2278998,1.55
1764746255.234284,2.47
1764746255.240465,3.14
1764746255.247,2.77
1764746255.253196,2.01
1764746255.259424,0.93
1764746255.265685,1.1
1764746255.271799,1.6
1764746255.278046,1.3
1764746255.284267,1.43
1764746255.290402,1.58
1764746255.296598,1.16
1764746255.3029592,1.31
1764746255.309139,1.39
1764746255.315538,1.33
1764746255.321642,1.43
1764746255.327889,1.35
1764746255.3342762,1.5
1764746255.340469,1.55
1764746255.346839,1.35
1764746255.353173,1.56
1764746255.359447,1.55
1764746255.3655932,1.63
1764746255.371658,1.79
1764746255.37792,1.41
1764746255.384267,1.6
1764746255.390452,1.58
1764746255.3967822,1.38
1764746255.4032269,1.72
1764746255.409149,1.66
1764746255.415343,1.56
1764746255.42174,1.82
1764746255.427968,1.71
1764746255.434486,1.87
1764746255.440456,1.8
1764746255.446729,1.64
1764746255.452946,1.78
1764746255.4592068,1.67
1764746255.465357,1.7
1764746255.471621,1.97
1764746255.4778938,1.66
1764746255.4842381,1.73
1764746255.4903429,1.78
1764746255.496663,1.62
1764746255.50288,1.93
1764746255.509067,1.74
1764746255.515381,1.58
1764746255.521656,1.89
1764746255.527911,1.79
1764746255.534184,1.88
1764746255.540361,2.03
1764746255.5466838,1.65
1764746255.5528698,1.8
1764746255.559069,1.91
1764746255.5653288,1.61
1764746255.5714629,1.88
1764746255.577894,1.79
1764746255.584181,1.7
1764746255.590357,1.91
1764746255.596517,1.78
1764746255.6032,1.94
1764746255.609096,1.88
1764746255.615464,1.84
1764746255.6215549,2.05
1764746255.627897,1.69
1764746255.6341949,1.71
1764746255.640479,2.03
1764746255.646712,1.74
1764746255.652884,1.68
1764746255.659201,1.84
1764746255.6652648,1.86
