timestamp,ecg_value
1764746593.5134048,0.77
1764746593.5196512,0.83
1764746593.526015,0.81
1764746593.5322042,0.84
1764746593.538465,0.98
1764746593.544677,0.78
1764746593.5509639,0.66
1764746593.55722,0.87
1764746593.563516,0.91
1764746593.569675,0.96
1764746593.5759182,1.15
1764746593.5820959,1.21
1764746593.588321,1.3
1764746593.594767,1.44
1764746593.600851,1.51
1764746593.607123,1.6
1764746593.6132638,1.67
1764746593.619631,1.76
1764746593.625855,1.81
1764746593.632042,1.74
1764746593.638355,1.76
1764746593.644568,1.84
1764746593.650893,1.79
1764746593.6570911,1.85
1764746593.6634219,1.81
1764746593.669591,1.96
1764746593.67607,2.21
1764746593.682094,2.17
1764746593.6883242,2.23
1764746593.6946208,2.28
1764746593.700908,2.22
1764746593.7071302,2.32
1764746593.7135239,2.34
1764746593.71964,2.31
1764746593.725882,2.39
1764746593.732256,2.41
1764746593.738374,2.45
1764746593.744809,2.48
1764746593.750924,2.45
1764746593.757386,2.55
1764746593.763336,2.51
1764746593.7696378,2.52
1764746593.7759612,2.64
1764746593.7822661,2.59
1764746593.788445,2.62
1764746593.794667,2.72
1764746593.800899,2.77
1764746593.807157,2.76
1764746593.81343,2.61
1764746593.819632,2.61
1764746593.825817,2.66
1764746593.832042,2.34
1764746593.838331,2.27
1764746593.844789,2.35
1764746593.850924,2.24
1764746593.857156,2.31
1764746593.863399,2.28
1764746593.8696508,2.2
1764746593.8761542,2.26
1764746593.881998,2.2
1764746593.888333,2.21
1764746593.894677,2.24
1764746593.900888,2.16
1764746593.907068,2.14
1764746593.9133599,2.19
1764746593.919538,2.65
1764746593.92607,3.17
1764746593.932034,3.17
1764746593.938445,3.17
1764746593.949267,3.03
1764746593.958642,1.66
1764746593.976119,1.49
1764746594.002344,2.02
1764746594.0024052,2.17
1764746594.002471,2.0
1764746594.002523,1.91
1764746594.0025768,2.01
1764746594.003895,2.04
1764746594.003956,1.94
1764746594.01074,2.02
1764746594.013225,2.0
1764746594.0304031,1.97
1764746594.030498,2.09
1764746594.032026,2.05
1764746594.0382771,2.07
1764746594.046311,2.08
1764746594.050808,2.04
1764746594.05707,2.17
1764746594.06355,2.12
1764746594.069682,2.11
1764746594.075809,2.21
1764746594.082149,2.16
1764746594.088307,2.2
1764746594.0945961,2.27
1764746594.1008582,2.21
1764746594.107081,2.25
1764746594.113309,2.25
1764746594.1196558,2.23
1764746594.1262562,2.21
1764746594.1319702,2.12
1764746594.138276,2.17
1764746594.1445389,2.14
1764746594.150802,2.0
1764746594.1569998,2.05
1764746594.16346,2.0
1764746594.169575,1.98
1764746594.175794,1.98
1764746594.1819808,1.93
1764746594.1882932,2.03
1764746594.194423,2.0
1764746594.2007182,1.95
1764746594.207026,2.04
1764746594.213301,1.96
1764746594.219436,1.95
1764746594.226434,2.0
1764746594.232002,1.93
1764746594.238271,1.97
1764746594.245047,1.96
1764746594.250787,1.88
1764746594.256972,1.9
1764746594.263253,1.88
1764746594.269523,1.91
1764746594.2759,2.0
1764746594.2819421,1.97
1764746594.2882419,1.99
1764746594.29464,2.01
1764746594.3007412,2.08
1764746594.307018,2.21
1764746594.313309,2.08
1764746594.319608,2.0
1764746594.326543,2.06
1764746594.3319309,1.86
1764746594.3382158,1.74
1764746594.344728,1.74
1764746594.350785,1.68
1764746594.357097,1.69
1764746594.363272,1.61
1764746594.369508,1.68
1764746594.37694,1.74
1764746594.3819609,1.6
1764746594.388261,1.68
1764746594.3946,1.72
1764746594.400769,1.65
1764746594.406927,1.71
1764746594.41325,1.74
1764746594.419459,1.9
1764746594.4263659,2.64
1764746594.431966,3.15
1764746594.438215,3.1
1764746594.444373,2.29
1764746594.4506938,0.98
1764746594.456969,1.2
1764746594.4631739,1.67
1764746594.469495,1.57
1764746594.4761379,1.41
1764746594.481906,1.44
1764746594.488149,1.58
1764746594.494355,1.5
1764746594.500635,1.47
1764746594.506868,1.62
1764746594.5132108,1.54
1764746594.51948,1.5
1764746594.525784,1.59
1764746594.5319831,1.56
1764746594.5381892,1.61
1764746594.544447,1.59
1764746594.5506518,1.56
1764746594.55694,1.66
1764746594.563164,1.61
1764746594.56943,1.61
1764746594.5761018,1.72
1764746594.58196,1.69
1764746594.588178,1.74
1764746594.594423,1.76
1764746594.600665,1.72
1764746594.606855,1.79
1764746594.6131752,1.8
1764746594.6194088,1.79
1764746594.625775,1.72
1764746594.6318731,1.59
1764746594.63811,1.72
1764746594.644373,1.68
1764746594.650629,1.53
1764746594.656854,1.55
1764746594.663188,1.5
1764746594.6693912,1.52
1764746594.6758678,1.55
1764746594.6818829,1.46
1764746594.68809,1.49
1764746594.6943831,1.51
1764746594.7006311,1.47
1764746594.707065,1.5
1764746594.713204,1.46
1764746594.719303,1.43
1764746594.7260952,1.42
1764746594.731972,1.29
1764746594.738195,1.32
1764746594.744499,1.29
1764746594.75056,1.18
1764746594.757102,1.28
1764746594.763229,1.2
1764746594.769335,1.2
1764746594.7759209,1.27
1764746594.7818828,1.28
1764746594.788191,1.34
1764746594.7943318,1.31
1764746594.800595,1.33
1764746594.8069508,1.52
1764746594.8132129,1.51
1764746594.819413,1.42
1764746594.825779,1.4
1764746594.831869,1.35
1764746594.838115,1.22
1764746594.844325,1.07
1764746594.850631,1.05
1764746594.8568032,1.09
1764746594.863109,0.95
1764746594.869407,1.02
1764746594.8756201,1.08
1764746594.8819041,0.99
1764746594.888072,1.07
1764746594.894366,1.08
1764746594.900612,0.99
1764746594.906842,1.05
1764746594.913134,1.01
1764746594.9193878,1.06
1764746594.926442,1.4
1764746594.9318569,2.09
1764746594.9380832,2.66
1764746594.9444952,2.45
1764746594.950592,1.29
1764746594.956821,0.39
1764746594.963052,0.72
1764746594.969313,1.18
1764746594.975716,1.09
1764746594.981915,0.85
1764746594.988014,1.0
1764746594.9942741,1.04
1764746595.000524,0.98
1764746595.006762,1.0
1764746595.0130281,0.98
1764746595.01923,1.09
1764746595.025623,1.13
1764746595.031955,1.01
1764746595.0379798,1.12
1764746595.0441651,1.12
1764746595.050535,1.08
1764746595.056736,1.21
1764746595.062986,1.14
1764746595.0692558,1.1
1764746595.075614,1.2
1764746595.081763,1.21
1764746595.088021,1.28
1764746595.094306,1.27
1764746595.100555,1.26
1764746595.106787,1.39
1764746595.113052,1.37
1764746595.1193972,1.36
1764746595.125589,1.41
1764746595.131951,1.31
1764746595.1381571,1.33
1764746595.1443741,1.31
1764746595.15065,1.27
1764746595.1567712,1.32
1764746595.162956,1.22
1764746595.16925,1.22
1764746595.175551,1.26
1764746595.181788,1.19
1764746595.187949,1.25
1764746595.1943119,1.26
1764746595.200526,1.23
1764746595.206812,1.31
1764746595.213036,1.25
1764746595.219258,1.27
1764746595.225782,1.32
1764746595.23184,1.24
1764746595.238057,1.28
1764746595.244338,1.26
1764746595.250546,1.27
1764746595.256744,1.38
1764746595.2630389,1.28
1764746595.269283,1.29
1764746595.2756171,1.35
1764746595.2818801,1.28
1764746595.2881641,1.39
1764746595.294307,1.47
1764746595.30054,1.43
1764746595.306748,1.48
1764746595.313024,1.53
1764746595.319656,1.64
1764746595.325453,1.65
1764746595.331809,1.52
1764746595.3379898,1.57
1764746595.344245,1.5
1764746595.3505542,1.27
1764746595.357131,1.3
1764746595.362946,1.26
1764746595.369215,1.24
1764746595.375456,1.3
1764746595.381768,1.24
1764746595.3879712,1.28
1764746595.394173,1.25
1764746595.400484,1.27
1764746595.40671,1.37
1764746595.4129632,1.28
1764746595.419467,1.23
1764746595.4254951,1.27
1764746595.431736,1.34
1764746595.4378822,1.94
1764746595.460192,2.73
1764746595.49854,2.87
1764746595.50416,2.47
1764746595.505634,1.15
1764746595.5250392,0.66
1764746595.528304,1.29
1764746595.529427,1.41
1764746595.5300522,1.29
1764746595.5303528,1.26
1764746595.530581,1.3
1764746595.530966,1.4
1764746595.531404,1.35
1764746595.531807,1.4
1764746595.532042,1.45
1764746595.532628,1.38
1764746595.538605,1.48
1764746595.5446458,1.51
1764746595.550538,1.45
1764746595.556842,1.53
1764746595.563015,1.54
1764746595.5692842,1.59
1764746595.575577,1.66
1764746595.581853,1.62
1764746595.588028,1.72
1764746595.594371,1.75
1764746595.600628,1.75
1764746595.606781,1.88
1764746595.613461,1.87
1764746595.619189,1.91
1764746595.6255202,1.97
1764746595.6318521,1.87
1764746595.637892,1.91
1764746595.6441522,1.93
1764746595.650356,1.85
1764746595.656684,1.94
1764746595.663041,1.87
1764746595.6691148,1.81
1764746595.6756659,1.83
1764746595.68157,1.8
1764746595.6878562,1.86
1764746595.694121,1.83
1764746595.700333,1.81
1764746595.706649,1.91
1764746595.712948,1.81
1764746595.7191339,1.82
1764746595.7254038,1.91
1764746595.7315898,1.83
1764746595.737904,1.88
1764746595.744073,1.93
1764746595.750283,1.9
1764746595.7571461,1.95
1764746595.7628732,1.91
1764746595.769092,1.93
1764746595.775587,1.98
1764746595.781596,1.92
1764746595.787895,1.97
1764746595.794115,1.99
1764746595.80037,2.03
1764746595.8067799,2.16
1764746595.8128698,2.07
1764746595.819107,2.11
1764746595.8254569,2.3
1764746595.8316128,2.22
1764746595.83791,2.25
1764746595.844039,2.27
1764746595.8504488,2.17
1764746595.856703,2.06
1764746595.8627682,1.91
1764746595.869087,1.96
1764746595.875478,1.99
1764746595.8815832,1.88
1764746595.8880708,2.01
1764746595.894115,2.04
1764746595.900407,2.14
1764746595.9067972,2.32
1764746595.912895,2.22
1764746595.919055,2.2
1764746595.925524,2.29
1764746595.9316008,2.21
1764746595.9378712,2.3
1764746595.944152,2.59
1764746595.9504142,3.17
1764746595.956608,3.17
1764746595.9627671,3.17
1764746595.9690409,3.16
1764746595.9753332,2.14
1764746595.981536,1.41
1764746595.987763,2.1
1764746595.994025,2.3
1764746596.0002801,1.99
1764746596.006624,2.04
1764746596.0128121,2.1
1764746596.0190039,2.09
1764746596.025375,2.12
1764746596.031586,2.11
1764746596.0377998,2.12
1764746596.044058,2.16
1764746596.050297,2.13
1764746596.056661,2.14
1764746596.062701,2.07
1764746596.069003,2.11
1764746596.075632,2.15
1764746596.0816278,2.07
1764746596.087811,2.19
1764746596.0941792,2.2
1764746596.100399,2.15
1764746596.1070132,2.24
1764746596.1127958,2.17
1764746596.119031,2.25
1764746596.125324,2.34
1764746596.131516,2.22
1764746596.137772,2.26
1764746596.144059,2.3
1764746596.150222,2.23
1764746596.1566012,2.21
1764746596.1627069,2.15
1764746596.1692958,2.19
1764746596.1755111,2.21
1764746596.1816268,2.08
1764746596.188077,2.11
1764746596.194365,2.07
1764746596.200455,2.06
1764746596.206837,2.14
1764746596.212807,2.02
1764746596.219118,2.05
1764746596.2261498,2.13
1764746596.231522,2.04
1764746596.2378922,2.15
1764746596.244191,2.15
1764746596.250391,2.09
1764746596.256649,2.16
1764746596.262815,2.07
1764746596.269259,2.11
1764746596.275937,2.15
1764746596.281644,2.02
1764746596.287872,2.06
1764746596.294328,2.05
1764746596.300383,2.0
1764746596.3067799,2.14
1764746596.312792,2.15
1764746596.319016,2.12
1764746596.325419,2.13
1764746596.331488,2.25
1764746596.337899,2.36
1764746596.344126,2.18
1764746596.350301,2.1
1764746596.3567061,2.14
1764746596.362717,1.84
1764746596.369044,1.76
1764746596.375412,1.89
1764746596.381527,1.81
1764746596.3878698,1.74
1764746596.394219,1.7
1764746596.4003782,1.68
1764746596.406614,1.78
1764746596.412871,1.74
1764746596.419124,1.77
1764746596.425633,1.82
1764746596.431542,1.7
1764746596.437906,1.73
1764746596.444145,1.74
1764746596.450342,1.91
1764746596.456602,2.65
1764746596.46274,3.15
1764746596.469305,3.12
1764746596.4754932,2.46
1764746596.481529,1.13
1764746596.4880278,1.15
1764746596.494102,1.66
1764746596.500422,1.58
1764746596.50668,1.52
1764746596.512848,1.5
1764746596.519073,1.58
1764746596.525363,1.57
1764746596.531528,1.48
1764746596.5380108,1.57
1764746596.544281,1.56
1764746596.550254,1.81
1764746596.556638,2.07
1764746596.562707,1.87
1764746596.568969,1.85
1764746596.575263,1.95
1764746596.581507,1.85
1764746596.587897,1.94
1764746596.594229,1.92
1764746596.600277,1.88
1764746596.607601,1.95
1764746596.6127229,1.89
1764746596.619068,1.95
1764746596.6252532,1.98
1764746596.631456,1.96
1764746596.6378691,2.03
1764746596.644028,1.97
1764746596.650162,1.94
1764746596.6567628,1.97
1764746596.6626382,1.88
1764746596.668994,1.89
1764746596.675255,1.82
1764746596.681407,1.7
1764746596.687743,1.78
1764746596.693909,1.72
1764746596.700246,1.61
1764746596.70669,1.65
1764746596.7127051,1.57
1764746596.7189429,1.61
1764746596.725266,1.6
1764746596.731453,1.44
1764746596.737678,1.42
1764746596.7441769,1.38
1764746596.7501938,1.37
1764746596.756902,1.45
1764746596.762802,1.38
1764746596.769067,1.41
1764746596.775449,1.4
1764746596.7815459,1.29
1764746596.787792,1.4
1764746596.794066,1.33
1764746596.800174,1.29
1764746596.807062,1.4
1764746596.812767,1.34
1764746596.819072,1.44
1764746596.825366,1.5
1764746596.831661,1.4
1764746596.8381922,1.59
1764746596.844085,1.62
1764746596.8502588,1.52
1764746596.85683,1.58
1764746596.862734,1.5
1764746596.868955,1.35
1764746596.875586,1.25
1764746596.881548,1.19
1764746596.8878798,1.24
1764746596.894009,1.14
1764746596.900293,1.17
1764746596.906999,1.25
1764746596.9127302,1.12
1764746596.919053,1.16
1764746596.9251788,1.23
1764746596.931319,1.14
1764746596.9378428,1.19
1764746596.943928,1.15
1764746596.950197,1.16
1764746596.956586,1.35
1764746596.9627059,1.81
1764746596.969035,2.63
1764746596.975533,2.79
1764746596.9814851,2.02
1764746596.987895,0.79
1764746596.993929,0.5
1764746597.000201,1.06
1764746597.006473,1.21
1764746597.012789,0.92
1764746597.01904,0.99
1764746597.025425,1.11
1764746597.03147,1.01
1764746597.037803,1.04
1764746597.0438972,1.07
1764746597.0501819,1.09
1764746597.0565062,1.15
1764746597.062722,1.08
1764746597.069128,1.14
1764746597.075165,1.21
1764746597.081378,1.12
1764746597.0877461,1.21
1764746597.0939589,1.23
1764746597.100359,1.23
1764746597.106687,1.29
1764746597.112618,1.22
1764746597.118957,1.33
1764746597.1476,1.44
1764746597.147688,1.38
1764746597.150506,1.46
1764746597.170702,1.46
1764746597.1714072,1.45
1764746597.174575,1.53
1764746597.174849,1.43
1764746597.175072,1.43
1764746597.175159,1.41
1764746597.193655,1.33
1764746597.2018719,1.36
1764746597.20193,1.26
1764746597.203444,1.23
1764746597.212346,1.32
1764746597.212662,1.25
1764746597.2187881,1.29
1764746597.229482,1.28
1764746597.231288,1.2
1764746597.237623,1.3
1764746597.244194,1.29
1764746597.250129,1.24
1764746597.256476,1.33
1764746597.262599,1.3
1764746597.268877,1.34
1764746597.27508,1.33
1764746597.2813828,1.23
1764746597.287603,1.34
1764746597.2938309,1.3
1764746597.3001258,1.23
1764746597.3064609,1.3
1764746597.312572,1.21
1764746597.318827,1.24
1764746597.325164,1.32
1764746597.331346,1.31
1764746597.337745,1.4
1764746597.343946,1.36
1764746597.350045,1.49
1764746597.356512,1.62
1764746597.362658,1.39
1764746597.368889,1.42
1764746597.375232,1.51
1764746597.381332,1.25
1764746597.387595,1.14
1764746597.39401,1.09
1764746597.400317,1.06
1764746597.406484,1.04
1764746597.412568,0.97
1764746597.418923,1.05
1764746597.425156,1.03
1764746597.431345,0.93
1764746597.4376872,1.05
1764746597.443949,1.01
1764746597.450125,0.98
1764746597.456846,1.05
1764746597.462592,0.91
1764746597.468988,1.07
1764746597.475082,1.77
1764746597.4814239,2.42
1764746597.4877949,2.44
1764746597.493789,1.8
1764746597.500105,0.55
1764746597.506542,0.38
1764746597.512583,0.9
1764746597.518852,1.05
1764746597.525353,0.85
1764746597.531393,0.76
1764746597.537791,0.95
1764746597.543956,0.89
1764746597.550134,0.83
1764746597.556397,0.89
1764746597.562686,0.84
1764746597.5688162,0.93
1764746597.57526,0.98
1764746597.581565,0.85
1764746597.5876648,0.91
1764746597.5939798,0.93
1764746597.600142,0.85
1764746597.606442,0.86
1764746597.612701,0.84
1764746597.618866,0.91
1764746597.625238,0.95
1764746597.631215,0.9
1764746597.637556,1.05
1764746597.64381,1.09
1764746597.650062,1.08
1764746597.656748,1.14
1764746597.662487,1.04
1764746597.6688619,1.09
1764746597.6751711,1.12
1764746597.6812868,1.0
1764746597.6877491,1.06
1764746597.693774,1.03
1764746597.700147,0.95
1764746597.706553,1.02
1764746597.7124522,0.96
1764746597.718814,0.99
1764746597.72547,1.02
1764746597.731333,0.96
1764746597.7376509,1.05
1764746597.743876,1.02
1764746597.750238,1.0
1764746597.756382,1.07
1764746597.762501,0.95
1764746597.768744,0.97
1764746597.7755158,1.07
1764746597.781251,0.97
1764746597.7875059,1.0
1764746597.793738,0.98
1764746597.800071,0.98
1764746597.806435,1.04
1764746597.812478,0.93
1764746597.8188128,0.97
1764746597.8256419,1.03
1764746597.8313081,0.94
1764746597.83744,1.03
1764746597.844003,1.07
1764746597.8500822,1.1
1764746597.85637,1.11
1764746597.86247,1.07
1764746597.868734,1.3
1764746597.8750458,1.32
1764746597.881438,1.12
1764746597.887499,1.2
1764746597.8937678,1.17
1764746597.899935,0.95
1764746597.9065118,0.87
1764746597.912596,0.87
1764746597.918852,0.9
1764746597.92501,0.85
1764746597.931263,0.79
1764746597.937475,0.9
1764746597.943702,0.87
1764746597.949991,0.87
1764746597.956629,0.95
1764746597.962448,0.83
1764746597.968711,0.87
1764746597.9750998,0.91
1764746597.9812238,0.85
1764746597.9874592,1.15
1764746597.993703,1.86
1764746597.999969,2.5
1764746598.0063722,2.47
1764746598.012404,1.51
1764746598.0187159,0.44
1764746598.0254369,0.55
1764746598.031164,0.95
1764746598.037636,1.01
1764746598.043767,0.86
1764746598.049921,0.87
1764746598.05626,1.01
1764746598.062448,0.95
1764746598.068759,0.99
1764746598.075053,1.03
1764746598.0813298,1.0
1764746598.0875149,1.11
1764746598.0937831,1.09
1764746598.099879,1.09
1764746598.10623,1.2
1764746598.1124291,1.15
1764746598.118782,1.25
1764746598.125084,1.29
1764746598.131256,1.23
1764746598.1375349,1.3
1764746598.143737,1.33
1764746598.15007,1.37
1764746598.1568298,1.5
1764746598.162386,1.46
1764746598.1687522,1.53
1764746598.175188,1.6
1764746598.1812649,1.53
1764746598.1874912,1.59
1764746598.193844,1.58
1764746598.199898,1.58
1764746598.207696,1.62
1764746598.212544,1.5
1764746598.2187781,1.52
1764746598.224941,1.54
1764746598.2311811,1.44
1764746598.2377322,1.51
1764746598.2436109,1.52
1764746598.249811,1.48
1764746598.256166,1.51
1764746598.262453,1.49
1764746598.268883,1.55
1764746598.275296,1.56
1764746598.2814,1.5
1764746598.288772,1.58
1764746598.293795,1.53
1764746598.300075,1.52
1764746598.306727,1.62
1764746598.312424,1.55
1764746598.3185658,1.6
1764746598.3250391,1.61
1764746598.331121,1.55
1764746598.337457,1.64
1764746598.34362,1.57
1764746598.349979,1.56
1764746598.3561852,1.77
1764746598.362298,1.85
1764746598.368712,1.88
1764746598.375071,1.86
1764746598.381066,1.92
1764746598.387299,2.11
1764746598.3936489,2.04
1764746598.4000268,1.91
1764746598.4070919,2.0
1764746598.412467,1.86
1764746598.4187179,1.72
1764746598.424853,1.7
1764746598.431065,1.71
1764746598.437333,1.78
1764746598.443674,1.74
1764746598.449887,1.84
1764746598.456796,2.01
1764746598.46242,1.91
1764746598.4688928,1.95
1764746598.475109,2.01
1764746598.481075,1.92
1764746598.487402,1.92
1764746598.4936671,1.92
1764746598.499847,1.99
1764746598.506877,2.37
1764746598.512488,3.05
1764746598.518826,3.17
1764746598.524909,3.16
1764746598.531332,2.44
1764746598.53738,1.23
1764746598.5436952,1.4
1764746598.549896,1.91
1764746598.5569012,1.89
1764746598.562304,1.66
1764746598.5687969,1.76
1764746598.5749152,1.83
1764746598.581203,1.75
1764746598.587355,1.86
1764746598.593612,1.83
1764746598.599822,1.84
1764746598.6061609,1.93
1764746598.612532,1.84
1764746598.618641,1.94
1764746598.6249049,1.99
1764746598.6312551,1.88
1764746598.637332,2.02
1764746598.643609,2.02
1764746598.649984,1.99
1764746598.656289,2.11
1764746598.662325,2.06
1764746598.668548,2.12
1764746598.674779,2.18
1764746598.681045,2.1
1764746598.687348,2.25
1764746598.693501,2.27
1764746598.699703,2.19
1764746598.706134,2.3
1764746598.724596,2.22
1764746598.724745,2.24
1764746598.7255821,2.23
1764746598.733949,2.1
1764746598.742879,2.15
1764746598.744286,2.11
1764746598.750171,2.1
1764746598.760768,2.11
1764746598.76234,1.99
1764746598.7747562,2.06
1764746598.774822,2.09
1764746598.781315,1.99
1764746598.7918131,2.05
1764746598.7948182,2.02
1764746598.799742,2.07
1764746598.806578,2.08
1764746598.815874,1.92
1764746598.818476,1.97
1764746598.824717,2.04
1764746598.830932,1.99
1764746598.837194,2.01
1764746598.843498,1.95
1764746598.849674,1.96
1764746598.85619,2.01
1764746598.8621829,1.88
1764746598.868479,1.95
1764746598.874631,2.05
1764746598.880951,2.02
1764746598.887234,2.07
1764746598.89342,2.03
1764746598.899731,2.12
1764746598.9061608,2.25
1764746598.91217,2.12
1764746598.918438,2.1
1764746598.924711,2.13
1764746598.93093,1.94
1764746598.937262,1.84
1764746598.943446,1.74
1764746598.949829,1.8
1764746598.956365,1.83
1764746598.962141,1.7
1764746598.9684522,1.73
1764746598.974777,1.81
1764746598.981024,1.7
1764746598.987252,1.71
1764746598.993459,1.68
1764746598.9996648,1.68
1764746599.0062249,1.71
1764746599.012226,1.71
1764746599.018381,1.89
1764746599.024651,2.4
1764746599.0309381,3.09
1764746599.03712,3.15
1764746599.043495,2.73
1764746599.049741,1.45
1764746599.05603,1.1
1764746599.0622962,1.54
1764746599.068464,1.68
1764746599.0746639,1.56
1764746599.081022,1.47
1764746599.087261,1.62
1764746599.093458,1.59
1764746599.099765,1.56
1764746599.105927,1.63
1764746599.112085,1.53
1764746599.118492,1.62
1764746599.1246898,1.65
1764746599.131009,1.6
1764746599.1372821,1.67
1764746599.1435342,1.64
1764746599.14972,1.65
1764746599.1560802,1.73
1764746599.162264,1.65
1764746599.16853,1.72
1764746599.1747332,1.76
1764746599.1809258,1.72
1764746599.1871989,1.82
1764746599.1935658,1.8
1764746599.1996899,1.84
1764746599.206052,1.94
1764746599.212208,1.83
1764746599.2183921,1.82
1764746599.224591,1.85
1764746599.2309718,1.79
1764746599.2372391,1.81
1764746599.2432551,1.73
1764746599.249702,1.68
1764746599.256337,1.72
1764746599.2623942,1.6
1764746599.2684631,1.61
1764746599.274682,1.61
1764746599.280905,1.55
1764746599.287331,1.64
1764746599.29342,1.58
1764746599.2996511,1.59
1764746599.305992,1.63
1764746599.3120499,1.58
1764746599.3183072,1.66
1764746599.324578,1.61
1764746599.3308952,1.51
1764746599.3372412,1.62
1764746599.343405,1.59
1764746599.3496919,1.54
1764746599.3558102,1.56
1764746599.362147,1.49
1764746599.368413,1.56
1764746599.374687,1.57
1764746599.3809102,1.49
1764746599.387161,1.58
1764746599.3933702,1.57
1764746599.399581,1.64
1764746599.405931,1.7
1764746599.41206,1.71
1764746599.418371,2.17
1764746599.42457,2.25
1764746599.430794,1.98
1764746599.437119,2.03
1764746599.443352,2.03
1764746599.449698,1.84
1764746599.455918,1.74
1764746599.46205,1.66
1764746599.4682722,1.7
1764746599.474664,1.66
1764746599.48085,1.6
1764746599.487412,1.67
1764746599.493341,1.58
1764746599.499496,1.6
1764746599.506295,1.63
1764746599.512139,1.52
1764746599.518501,1.6
1764746599.5251799,1.56
1764746599.5310001,1.48
1764746599.537429,1.72
1764746599.543348,2.27
1764746599.5496,2.78
1764746599.5562801,2.75
1764746599.562158,1.96
1764746599.568511,0.79
1764746599.574684,0.75
1764746599.5808342,1.26
1764746599.587629,1.33
1764746599.593445,1.07
1764746599.5997708,1.11
1764746599.606116,1.26
1764746599.612341,1.16
1764746599.618515,1.21
1764746599.6247091,1.21
1764746599.630888,1.22
1764746599.63818,1.34
1764746599.643478,1.27
1764746599.649749,1.26
1764746599.6560771,1.34
1764746599.662194,1.3
1764746599.668437,1.37
1764746599.674709,1.38
1764746599.6808589,1.33
1764746599.687209,1.47
1764746599.693286,1.43
1764746599.699845,1.43
1764746599.706072,1.52
1764746599.7122931,1.5
1764746599.718431,1.59
1764746599.724627,1.57
1764746599.7311108,1.49
1764746599.7372491,1.54
1764746599.743348,1.41
1764746599.749692,1.41
1764746599.756016,1.41
1764746599.762059,1.27
1764746599.768538,1.3
1764746599.774602,1.26
1764746599.780859,1.15
1764746599.787301,1.25
1764746599.7933261,1.2
1764746599.7996008,1.21
1764746599.806171,1.25
1764746599.8122199,1.12
1764746599.818348,1.16
1764746599.824507,1.17
1764746599.8308039,1.11
1764746599.8372211,1.16
1764746599.8434381,1.06
1764746599.849698,1.04
1764746599.856441,1.15
1764746599.8621,1.03
1764746599.868339,1.01
1764746599.874783,1.02
1764746599.880867,1.0
1764746599.887271,1.04
1764746599.893269,0.97
1764746599.8995688,0.99
1764746599.9058712,1.05
1764746599.912054,1.06
1764746599.918398,1.19
1764746599.9246411,1.12
1764746599.930805,1.15
1764746599.937887,1.35
1764746599.943344,1.26
1764746599.949731,1.19
1764746599.955968,1.24
1764746599.9621792,1.17
1764746599.9684072,1.1
1764746599.974663,1.01
1764746599.9807842,0.97
1764746599.988999,1.03
1764746600.0104918,0.93
1764746600.010817,0.92
1764746600.0277262,1.01
1764746600.032,0.93
1764746600.044034,0.97
1764746600.056449,0.97
1764746600.059205,0.9
1764746600.07727,0.95
1764746600.077384,0.88
1764746600.077684,0.97
1764746600.077902,1.31
1764746600.077999,2.02
1764746600.0781472,2.66
1764746600.078275,2.49
1764746600.08072,1.38
1764746600.086932,0.45
1764746600.0933728,0.76
1764746600.0994282,1.24
1764746600.106678,1.18
1764746600.111983,0.94
1764746600.1181738,1.06
1764746600.124466,1.12
1764746600.130646,0.99
1764746600.1369522,1.13
1764746600.1431522,1.11
1764746600.149525,1.07
1764746600.155906,1.12
1764746600.161929,1.07
1764746600.1682408,1.12
1764746600.174387,1.16
1764746600.180597,1.12
1764746600.1869838,1.18
1764746600.193207,1.15
1764746600.1994612,1.24
1764746600.205767,1.25
1764746600.211936,1.26
1764746600.218186,1.39
1764746600.224364,1.38
1764746600.230667,1.37
1764746600.236879,1.44
1764746600.243028,1.41
1764746600.249472,1.41
1764746600.255727,1.42
1764746600.261916,1.36
1764746600.2681699,1.41
1764746600.2743711,1.39
1764746600.280622,1.3
1764746600.28687,1.37
1764746600.293063,1.25
1764746600.299417,1.23
1764746600.305652,1.37
1764746600.311886,1.29
1764746600.318178,1.3
1764746600.32438,1.29
1764746600.330672,1.29
1764746600.3368618,1.44
1764746600.343157,1.36
1764746600.3493729,1.33
1764746600.3556201,1.43
1764746600.361857,1.37
1764746600.368191,1.39
1764746600.374311,1.42
1764746600.380646,1.41
1764746600.386859,1.43
1764746600.393037,1.41
1764746600.3994439,1.42
1764746600.4058628,1.47
1764746600.411815,1.44
1764746600.418169,1.54
1764746600.4244092,1.61
1764746600.430656,1.6
1764746600.4368582,1.66
1764746600.443093,1.73
1764746600.449323,1.86
1764746600.455627,1.88
1764746600.461847,1.67
1764746600.468193,1.75
1764746600.4744089,1.76
1764746600.480662,1.48
1764746600.4869661,1.48
1764746600.4930618,1.48
1764746600.49932,1.46
1764746600.5057821,1.47
1764746600.511897,1.39
1764746600.5181131,1.48
1764746600.5243342,1.47
1764746600.530622,1.42
1764746600.536841,1.5
1764746600.542994,1.44
1764746600.5492742,1.39
1764746600.555595,1.41
1764746600.561912,1.39
1764746600.56804,1.78
1764746600.574427,2.57
1764746600.580617,2.99
1764746600.586821,2.84
1764746600.59309,1.8
1764746600.5993128,0.85
1764746600.605603,1.22
1764746600.6118321,1.51
1764746600.618142,1.43
1764746600.6243122,1.35
1764746600.630641,1.4
1764746600.6368,1.5
1764746600.642994,1.43
1764746600.649246,1.42
1764746600.655519,1.55
1764746600.661963,1.51
1764746600.668074,1.54
1764746600.674322,1.54
1764746600.680513,1.52
1764746600.686806,1.61
1764746600.692994,1.61
1764746600.699394,1.67
1764746600.7056441,1.72
1764746600.711858,1.65
1764746600.718055,1.74
1764746600.724267,1.74
1764746600.730579,1.75
1764746600.73679,1.93
1764746600.742974,1.9
1764746600.749237,1.92
1764746600.7556841,1.98
1764746600.761868,1.92
1764746600.7680068,1.96
1764746600.774283,1.94
1764746600.780531,1.87
1764746600.786762,1.92
1764746600.792943,1.83
1764746600.7992709,1.82
1764746600.805711,1.85
1764746600.8118541,1.81
1764746600.818054,1.9
1764746600.824311,1.87
1764746600.830675,1.8
1764746600.836838,1.94
1764746600.8429592,1.93
1764746600.849269,1.93
1764746600.8557801,1.99
1764746600.86176,1.93
1764746600.867997,1.98
1764746600.874294,2.0
1764746600.880453,1.94
1764746600.886765,2.05
1764746600.89292,1.99
1764746600.899219,1.99
1764746600.90559,2.09
1764746600.911766,2.04
1764746600.9179761,2.08
1764746600.9243069,2.09
1764746600.930518,2.17
1764746600.9369411,2.35
1764746600.9430559,2.24
1764746600.949205,2.28
1764746600.955557,2.54
1764746600.9617972,2.49
1764746600.967977,2.46
1764746600.974166,2.46
1764746600.980533,2.43
1764746600.986748,2.34
1764746600.992904,2.14
1764746600.999213,2.22
1764746601.005533,2.28
1764746601.011711,2.17
1764746601.018038,2.26
1764746601.024273,2.31
1764746601.030536,2.26
1764746601.036695,2.35
1764746601.042922,2.3
1764746601.049248,2.34
1764746601.055573,2.44
1764746601.061723,2.33
1764746601.068056,2.44
1764746601.074265,2.64
1764746601.080616,3.16
1764746601.086903,3.17
1764746601.093027,3.18
1764746601.0993311,3.17
1764746601.105558,3.15
1764746601.111854,2.37
1764746601.1179361,2.14
1764746601.1242619,2.69
1764746601.130767,2.76
1764746601.1366951,2.61
1764746601.1428869,2.58
1764746601.149185,2.72
1764746601.1554508,2.78
1764746601.1617541,2.74
1764746601.167943,2.87
1764746601.174218,2.89
1764746601.1805031,2.86
1764746601.186916,2.95
1764746601.1929028,2.95
1764746601.1991758,3.01
1764746601.205596,3.05
1764746601.211678,2.99
1764746601.217963,3.1
1764746601.22417,3.11
1764746601.230409,3.11
1764746601.236761,3.15
1764746601.2428641,3.16
1764746601.249148,3.16
1764746601.255546,3.16
1764746601.261755,3.17
1764746601.2680771,3.17
1764746601.274196,3.17
1764746601.280542,3.17
1764746601.286873,3.17
1764746601.2928379,3.17
1764746601.299167,3.17
1764746601.305571,3.17
1764746601.3116941,3.17
1764746601.318024,3.17
1764746601.324223,3.17
1764746601.330501,3.17
1764746601.3368802,3.17
1764746601.342871,3.17
1764746601.349213,3.17
1764746601.355498,3.17
1764746601.361684,3.17
1764746601.367865,3.17
1764746601.374187,3.17
1764746601.380428,3.17
1764746601.386658,3.17
1764746601.3929741,3.17
1764746601.39925,3.17
1764746601.40547,3.17
1764746601.41168,3.17
1764746601.417967,3.17
1764746601.4242182,3.18
1764746601.4304829,3.17
1764746601.4373288,3.18
1764746601.442865,3.18
1764746601.449179,3.18
1764746601.4555619,3.18
1764746601.4616709,3.18
1764746601.467883,3.18
1764746601.47413,3.18
1764746601.480414,3.18
1764746601.4871511,3.18
1764746601.492876,3.17
1764746601.499279,3.17
1764746601.505497,3.17
1764746601.511673,3.17
1764746601.517868,3.17
1764746601.524093,3.16
1764746601.530541,3.16
1764746601.537358,3.14
1764746601.542795,2.99
1764746601.5491571,2.88
1764746601.55559,2.83
1764746601.561602,2.68
1764746601.567967,2.74
1764746601.574134,2.76
1764746601.580503,3.05
1764746601.5869062,3.17
1764746601.5928042,3.17
1764746601.599158,3.17
1764746601.6054668,3.17
1764746601.6116009,2.32
1764746601.618353,1.6
1764746601.6241422,2.08
1764746601.630416,2.29
1764746601.636726,2.03
1764746601.642902,1.82
1764746601.649175,1.98
1764746601.655436,2.04
1764746601.661591,1.85
1764746601.667852,1.9
1764746601.674079,1.87
1764746601.687188,1.78
1764746601.6877398,1.85
1764746601.693023,1.71
1764746601.702893,1.65
1764746601.736125,1.68
1764746601.74846,1.59
1764746601.748559,1.66
1764746601.748629,1.54
1764746601.748684,1.49
1764746601.748737,1.61
1764746601.7487931,1.5
1764746601.749158,1.5
1764746601.757115,1.51
1764746601.762163,1.46
1764746601.767838,1.53
1764746601.7749581,1.44
1764746601.780393,1.38
1764746601.787223,1.45
1764746601.7928882,1.33
1764746601.799104,1.32
1764746601.805435,1.34
1764746601.8115861,1.19
1764746601.818109,1.22
1764746601.824041,1.15
1764746601.8305979,1.11
1764746601.8367,1.15
1764746601.8431108,1.04
1764746601.849153,1.02
1764746601.855307,1.02
1764746601.86149,0.94
1764746601.867798,1.02
1764746601.8741279,0.94
1764746601.880325,0.82
1764746601.886715,0.84
1764746601.892768,0.81
1764746601.898941,0.77
1764746601.905386,0.72
1764746601.9116979,0.61
1764746601.917813,0.72
1764746601.9240892,0.61
1764746601.930382,0.59
1764746601.9367218,0.68
1764746601.9427772,0.56
1764746601.949027,0.5
1764746601.9552882,0.55
1764746601.961552,0.63
1764746601.967804,0.7
1764746601.97404,0.59
1764746601.980266,0.59
1764746601.986699,0.61
1764746601.992848,0.3
1764746601.999061,0.21
1764746602.005337,0.29
1764746602.011523,0.21
1764746602.0178618,0.26
1764746602.02395,0.1
1764746602.030207,0.26
1764746602.036969,0.65
1764746602.042856,0.4
1764746602.0490649,0.22
1764746602.055485,0.38
1764746602.0616891,0.33
1764746602.06797,0.42
1764746602.074013,0.38
1764746602.0802538,0.52
1764746602.086678,1.44
1764746602.092767,1.91
1764746602.099178,1.7
1764746602.105369,0.94
1764746602.111836,0.0
1764746602.118013,0.0
1764746602.124098,0.12
1764746602.130281,0.38
1764746602.136693,0.43
1764746602.1427178,0.24
1764746602.149085,0.36
1764746602.1553779,0.53
1764746602.161509,0.37
1764746602.167855,0.39
1764746602.174006,0.59
1764746602.18028,0.5
1764746602.186643,0.37
1764746602.1927118,0.31
1764746602.199002,0.4
1764746602.205194,0.49
1764746602.211492,0.33
1764746602.217719,0.53
1764746602.22402,0.58
1764746602.230165,0.52
1764746602.236594,0.73
1764746602.242719,0.6
1764746602.248985,0.36
1764746602.256026,0.41
1764746602.261537,0.46
1764746602.267903,0.54
1764746602.274178,0.48
1764746602.280268,0.38
1764746602.28654,0.48
1764746602.29274,0.37
1764746602.2989209,0.4
1764746602.305182,0.46
1764746602.311434,0.3
1764746602.3177989,0.29
1764746602.324023,0.18
1764746602.330237,0.18
1764746602.336596,0.32
1764746602.342963,0.13
1764746602.348949,0.15
1764746602.355225,0.24
1764746602.361503,0.08
1764746602.367976,0.11
1764746602.374018,0.09
1764746602.380235,0.0
1764746602.387058,0.0
1764746602.392677,0.0
1764746602.398915,0.0
1764746602.405177,0.0
1764746602.41149,0.0
1764746602.4177122,0.0
1764746602.423889,0.0
1764746602.4300969,0.0
1764746602.436434,0.0
1764746602.4426072,0.0
1764746602.448918,0.0
1764746602.455093,0.0
1764746602.461442,0.0
1764746602.467633,0.0
1764746602.473849,0.0
1764746602.480166,0.0
1764746602.486474,0.0
1764746602.49266,0.0
1764746602.4988549,0.0
1764746602.505101,0.0
1764746602.511491,0.0
1764746602.517694,0.0
1764746602.523843,0.0
1764746602.530145,0.0
1764746602.536513,0.0
1764746602.542681,0.0
1764746602.54895,0.0
1764746602.555132,0.0
1764746602.5614789,0.0
1764746602.567717,0.0
1764746602.573962,0.0
1764746602.580297,0.0
1764746602.5871308,0.0
1764746602.592611,0.0
1764746602.598927,0.0
1764746602.605142,0.0
1764746602.611636,0.0
1764746602.6177049,0.0
1764746602.623856,0.0
1764746602.630219,0.0
1764746602.636534,0.0
1764746602.642582,0.0
1764746602.64887,0.0
1764746602.6551611,0.0
1764746602.661341,0.0
1764746602.6676722,0.0
1764746602.673772,0.0
1764746602.680077,0.0
1764746602.686452,0.0
1764746602.6926699,0.0
1764746602.698851,0.0
1764746602.7055738,0.0
1764746602.711348,0.0
1764746602.717659,0.0
1764746602.723829,0.0
1764746602.730187,0.0
1764746602.736566,0.0
1764746602.7426949,0.0
1764746602.749095,0.0
1764746602.755224,0.0
1764746602.761487,0.0
1764746602.767749,0.0
1764746602.773916,0.0
1764746602.780149,0.0
1764746602.786506,0.0
1764746602.792595,0.0
1764746602.799069,0.0
1764746602.805274,0.0
1764746602.811399,0.0
1764746602.817815,0.0
1764746602.823869,0.0
1764746602.830095,0.0
1764746602.8371289,0.0
1764746602.842762,0.0
1764746602.848918,0.0
1764746602.855225,0.0
1764746602.861517,0.0
1764746602.8677728,0.0
1764746602.874032,0.0
1764746602.880175,0.0
1764746602.8865778,0.0
1764746602.892781,0.0
1764746602.8990111,0.0
1764746602.9052649,0.13
1764746602.911433,0.63
1764746602.91814,0.7
1764746602.9241338,0.56
1764746602.930091,0.67
1764746602.936609,0.84
1764746602.942824,0.8
1764746602.9488692,0.82
1764746602.955286,0.93
1764746602.961406,0.96
1764746602.967665,1.37
1764746602.974117,1.57
1764746602.980204,1.46
1764746602.986489,1.52
1764746602.992744,1.59
1764746602.999079,1.64
1764746603.005213,1.57
1764746603.0113611,1.5
1764746603.017622,1.63
1764746603.0239239,1.58
1764746603.030124,1.54
1764746603.037351,1.7
1764746603.042732,1.75
1764746603.0489879,1.79
1764746603.055427,1.83
1764746603.061374,1.82
1764746603.067619,1.9
1764746603.073877,1.79
1764746603.080044,1.78
1764746603.08749,2.05
1764746603.092672,2.47
1764746603.098834,3.16
1764746603.105319,3.17
1764746603.11153,3.17
1764746603.1177669,2.78
1764746603.12381,1.49
1764746603.141731,1.73
1764746603.159104,2.47
1764746603.170603,2.37
1764746603.1707919,2.15
1764746603.1709492,2.28
1764746603.171128,2.38
1764746603.171319,2.42
1764746603.176706,2.41
1764746603.185451,2.41
1764746603.199612,2.54
1764746603.2112262,2.48
1764746603.212141,2.49
1764746603.214103,2.59
1764746603.2144582,2.53
1764746603.217518,2.62
1764746603.22995,2.65
1764746603.230174,2.6
1764746603.238912,2.66
1764746603.242562,2.66
1764746603.248775,2.74
1764746603.255237,2.86
1764746603.261407,2.76
1764746603.2675269,2.79
1764746603.2738318,2.86
1764746603.279986,2.86
1764746603.286586,2.85
1764746603.292619,2.8
1764746603.2987142,2.87
1764746603.304967,2.86
1764746603.311241,2.71
1764746603.31751,2.8
1764746603.323786,2.85
1764746603.3300211,2.81
1764746603.336648,2.85
1764746603.342529,2.83
1764746603.3487842,2.87
1764746603.354961,2.92
1764746603.361392,2.85
1764746603.367439,2.9
1764746603.373656,2.86
1764746603.38,2.83
1764746603.386543,2.93
1764746603.3925052,2.85
1764746603.3986502,2.84
1764746603.404943,2.91
1764746603.411256,2.86
1764746603.417482,2.87
1764746603.423746,2.89
1764746603.429918,2.83
1764746603.436247,2.82
1764746603.442473,2.85
1764746603.4487228,2.92
1764746603.455013,3.01
1764746603.461327,2.97
1764746603.4674969,2.98
1764746603.47369,3.08
1764746603.4799201,3.13
1764746603.4862669,3.15
1764746603.492516,3.13
1764746603.4986722,3.13
1764746603.505038,3.05
1764746603.5111969,2.83
1764746603.5173938,2.82
1764746603.523687,2.79
1764746603.529856,2.75
1764746603.536237,2.75
1764746603.5425658,2.69
1764746603.548718,2.74
1764746603.554928,2.77
1764746603.561217,2.69
1764746603.567507,2.77
1764746603.573806,2.72
1764746603.579856,2.61
1764746603.586213,2.72
1764746603.5925171,2.71
1764746603.598662,2.85
1764746603.604897,3.17
1764746603.611211,3.17
1764746603.6174998,3.18
1764746603.62371,3.18
1764746603.62983,3.17
1764746603.636179,2.77
1764746603.642474,2.08
1764746603.648732,2.48
1764746603.654997,2.8
1764746603.661193,2.5
1764746603.667395,2.5
1764746603.673725,2.61
1764746603.67988,2.59
1764746603.686176,2.6
1764746603.6923819,2.55
1764746603.6986182,2.6
1764746603.704913,2.64
1764746603.7112472,2.55
1764746603.717471,2.57
1764746603.7237,2.6
1764746603.7298932,2.58
1764746603.736234,2.6
1764746603.742501,2.54
1764746603.748611,2.62
1764746603.75489,2.66
1764746603.761317,2.58
1764746603.767601,2.66
1764746603.773696,2.68
1764746603.779794,2.66
1764746603.786186,2.73
1764746603.792497,2.72
1764746603.7986188,2.71
1764746603.804866,2.68
1764746603.81113,2.57
1764746603.8173702,2.66
1764746603.823668,2.59
1764746603.829825,2.46
1764746603.836267,2.5
1764746603.842386,2.42
1764746603.848659,2.38
1764746603.8550131,2.4
1764746603.861196,2.39
1764746603.8675258,2.44
1764746603.873703,2.41
1764746603.879957,2.38
1764746603.886401,2.41
1764746603.8925261,2.31
1764746603.898609,2.32
1764746603.904928,2.38
1764746603.911239,2.28
1764746603.917341,2.27
1764746603.923715,2.24
1764746603.930012,2.2
1764746603.936265,2.17
1764746603.942539,2.05
1764746603.94863,2.06
1764746603.9549272,2.08
1764746603.9610891,2.0
1764746603.967319,2.13
1764746603.9736059,2.14
1764746603.9799948,2.06
1764746603.9861052,2.16
1764746603.992357,2.19
1764746603.9985752,2.16
1764746604.0048451,2.12
1764746604.011196,2.01
1764746604.017351,1.97
1764746604.023633,1.73
1764746604.030118,1.61
1764746604.0365849,1.73
1764746604.0423942,1.6
1764746604.0487459,1.5
1764746604.054959,1.56
1764746604.0612879,1.55
1764746604.067391,1.59
1764746604.073677,1.55
1764746604.080058,1.52
1764746604.086449,1.62
1764746604.092469,1.54
1764746604.098731,1.45
1764746604.1048489,1.53
1764746604.1112928,1.73
1764746604.117277,2.45
1764746604.123615,3.01
1764746604.1297169,2.87
1764746604.136075,2.17
1764746604.142486,0.9
1764746604.1485498,0.95
1764746604.1548228,1.6
1764746604.1611562,1.44
1764746604.167457,1.33
1764746604.173575,1.42
1764746604.179816,1.42
1764746604.186063,1.41
1764746604.192312,1.38
1764746604.1986072,1.45
1764746604.20503,1.48
1764746604.2112079,1.38
1764746604.2175171,1.45
1764746604.223617,1.49
1764746604.229753,1.45
1764746604.23611,1.52
1764746604.242314,1.53
1764746604.248749,1.55
1764746604.2557309,1.58
1764746604.2624168,1.53
1764746604.2673678,1.66
1764746604.2736309,1.69
1764746604.2798321,1.62
1764746604.286112,1.76
1764746604.2924511,1.78
1764746604.298594,1.77
1764746604.304852,1.76
1764746604.311039,1.71
1764746604.317368,1.8
1764746604.3235142,1.71
1764746604.329798,1.64
1764746604.336019,1.73
1764746604.3423228,1.64
1764746604.348512,1.6
1764746604.354727,1.61
1764746604.361057,1.56
1764746604.3673,1.61
1764746604.3735669,1.62
1764746604.379772,1.57
1764746604.386126,1.61
1764746604.392359,1.59
1764746604.398496,1.63
1764746604.4046981,1.62
1764746604.411059,1.59
1764746604.4173179,1.65
1764746604.42359,1.61
1764746604.429798,1.57
1764746604.436094,1.63
1764746604.4422631,1.6
1764746604.44847,1.63
1764746604.454769,1.61
1764746604.460959,1.54
1764746604.467255,1.61
1764746604.473527,1.56
1764746604.479713,1.58
1764746604.48604,1.68
1764746604.4923809,1.66
1764746604.498528,1.73
1764746604.5048058,1.74
1764746604.511007,1.77
1764746604.517322,1.96
1764746604.5234728,1.9
1764746604.5297668,1.81
1764746604.536022,1.91
1764746604.542399,1.72
1764746604.548497,1.53
1764746604.5548759,1.57
1764746604.5610912,1.5
1764746604.567379,1.5
1764746604.57371,1.49
1764746604.579775,1.51
1764746604.58632,1.58
1764746604.5928278,1.52
1764746604.59862,1.58
1764746604.606863,1.61
1764746604.6222148,1.54
1764746604.6483269,1.61
1764746604.6738591,1.54
1764746604.674359,1.58
1764746604.6784818,2.06
1764746604.6785972,2.84
1764746604.678716,3.15
1764746604.691594,2.92
1764746604.692008,1.77
1764746604.695759,1.0
1764746604.696044,1.38
1764746604.696139,1.71
1764746604.69628,1.68
1764746604.696373,1.52
1764746604.698509,1.6
1764746604.70474,1.69
1764746604.723199,1.61
1764746604.723376,1.66
1764746604.723635,1.66
1764746604.730141,1.65
1764746604.736455,1.75
1764746604.7421849,1.7
1764746604.748479,1.71
1764746604.754912,1.76
1764746604.761163,1.79
1764746604.767324,1.88
1764746604.773437,1.82
1764746604.7796302,1.78
1764746604.785983,1.9
1764746604.7921228,1.88
1764746604.798421,1.89
1764746604.804657,1.96
1764746604.810984,1.99
1764746604.817157,2.05
1764746604.8233988,2.0
1764746604.829653,1.99
1764746604.836045,2.04
1764746604.8421,1.98
1764746604.8484192,1.98
1764746604.8546822,1.98
1764746604.86093,1.88
1764746604.867454,1.95
1764746604.873445,1.89
1764746604.879745,1.82
1764746604.886025,1.87
1764746604.8920782,1.81
1764746604.898418,1.83
1764746604.9047139,1.84
1764746604.9108639,1.8
1764746604.917353,1.91
1764746604.9234078,1.87
1764746604.9296331,1.81
1764746604.935925,1.85
1764746604.942121,1.77
1764746604.948446,1.83
1764746604.954674,1.91
1764746604.9608681,1.76
1764746604.96727,1.81
1764746604.973355,1.82
1764746604.979671,1.78
1764746604.985976,1.83
1764746604.992055,1.78
1764746604.9983768,1.84
1764746605.0046122,1.86
1764746605.010896,1.8
1764746605.017247,1.91
1764746605.023351,1.93
1764746605.029568,1.91
1764746605.035918,1.96
1764746605.0420742,2.04
1764746605.048501,2.13
1764746605.054642,2.03
1764746605.060863,1.95
1764746605.067175,2.05
1764746605.0734148,1.82
1764746605.079638,1.61
1764746605.08588,1.73
1764746605.092195,1.64
1764746605.0984378,1.58
1764746605.104579,1.67
1764746605.110878,1.62
1764746605.117491,1.68
1764746605.1233459,1.65
1764746605.129584,1.67
1764746605.1360588,1.77
1764746605.1421099,1.68
1764746605.148302,1.67
1764746605.1545868,1.72
1764746605.1608589,1.79
1764746605.1672041,2.4
1764746605.173275,3.14
1764746605.17961,3.15
1764746605.1861188,2.87
1764746605.192124,1.5
1764746605.198334,1.05
1764746605.204662,1.66
1764746605.21087,1.64
1764746605.21775,1.47
1764746605.2233112,1.49
1764746605.2295392,1.6
1764746605.235757,1.67
1764746605.2420459,1.53
1764746605.248471,1.63
1764746605.254536,1.69
1764746605.260729,1.58
1764746605.267481,1.67
1764746605.2734342,1.68
1764746605.279565,1.64
1764746605.285794,1.72
1764746605.2920692,1.69
1764746605.2984169,1.72
1764746605.3045912,1.75
1764746605.310797,1.74
1764746605.3171651,1.83
1764746605.3233988,1.8
1764746605.329552,1.79
1764746605.335846,1.9
1764746605.342027,1.86
1764746605.348277,1.9
1764746605.354626,1.98
1764746605.360857,1.89
1764746605.367054,1.94
1764746605.3732889,1.93
1764746605.3795981,1.9
1764746605.385767,1.95
1764746605.3921092,1.86
1764746605.398298,1.83
1764746605.4044642,1.82
1764746605.410825,1.74
1764746605.417086,1.75
1764746605.423294,1.73
1764746605.429534,1.74
1764746605.4358678,1.78
1764746605.442088,1.67
1764746605.4482791,1.7
1764746605.454588,1.72
1764746605.460841,1.72
1764746605.4670389,1.78
1764746605.4732401,1.7
1764746605.479549,1.67
1764746605.485864,1.74
1764746605.49238,1.66
1764746605.498251,1.71
1764746605.504493,1.71
1764746605.510738,1.61
1764746605.517038,1.68
1764746605.523166,1.66
1764746605.529574,1.63
1764746605.535784,1.67
1764746605.541945,1.58
1764746605.548178,1.69
1764746605.554463,1.79
1764746605.560794,1.69
1764746605.567042,1.76
1764746605.573298,1.93
1764746605.579504,1.89
1764746605.585717,1.87
1764746605.591892,1.78
1764746605.598391,1.85
1764746605.604505,1.68
1764746605.6107788,1.48
1764746605.617093,1.58
1764746605.6233118,1.48
1764746605.629447,1.41
1764746605.635653,1.53
1764746605.641939,1.45
1764746605.6482,1.45
1764746605.654502,1.49
1764746605.660888,1.43
1764746605.667016,1.51
1764746605.673252,1.46
1764746605.6795142,1.38
1764746605.685652,1.51
1764746605.6919181,1.6
1764746605.698139,2.22
1764746605.704428,2.94
1764746605.710793,2.89
1764746605.717132,2.33
1764746605.7232351,1.12
1764746605.729523,0.82
1764746605.735956,1.4
1764746605.7419462,1.4
1764746605.74827,1.27
1764746605.754477,1.34
1764746605.760802,1.36
1764746605.767047,1.41
1764746605.773313,1.33
1764746605.779577,1.3
1764746605.785915,1.41
1764746605.791945,1.36
1764746605.798259,1.42
1764746605.804524,1.44
1764746605.810622,1.38
1764746605.817482,1.45
1764746605.823251,1.43
1764746605.829464,1.5
1764746605.835604,1.59
1764746605.8419561,1.52
1764746605.848216,1.55
1764746605.854482,1.6
1764746605.860678,1.62
1764746605.86724,1.69
1764746605.873268,1.66
1764746605.879439,1.69
1764746605.8858151,1.8
1764746605.891934,1.7
1764746605.898238,1.72
1764746605.904622,1.74
1764746605.9106948,1.6
1764746605.917254,1.7
1764746605.9232562,1.67
1764746605.929421,1.56
1764746605.935613,1.58
1764746605.941932,1.56
1764746605.948218,1.59
1764746605.9544399,1.57
1764746605.960605,1.53
1764746605.9670022,1.63
1764746605.9732192,1.57
1764746605.979429,1.54
1764746605.985599,1.64
1764746605.991842,1.58
1764746605.998206,1.64
1764746606.004361,1.64
1764746606.010747,1.57
1764746606.0170188,1.65
1764746606.023129,1.63
1764746606.0294049,1.63
1764746606.035579,1.66
1764746606.04193,1.57
1764746606.048349,1.64
1764746606.054431,1.64
1764746606.0607622,1.56
1764746606.0670369,1.66
1764746606.073229,1.65
1764746606.0794601,1.67
1764746606.085815,1.79
1764746606.0918772,1.74
1764746606.098367,1.86
1764746606.11359,2.0
1764746606.122349,1.9
1764746606.122496,1.93
1764746606.139446,1.87
1764746606.140217,1.84
1764746606.1405299,1.78
1764746606.143584,1.59
1764746606.1527848,1.61
1764746606.173182,1.62
1764746606.173266,1.53
1764746606.1750112,1.58
1764746606.1768708,1.57
1764746606.179379,1.59
1764746606.185784,1.62
1764746606.1918879,1.55
1764746606.1981928,1.6
1764746606.2046878,1.58
1764746606.210888,1.49
1764746606.216927,1.65
1764746606.223546,1.8
1764746606.229502,2.42
1764746606.235897,3.1
1764746606.2427678,2.94
1764746606.248286,2.2
1764746606.254574,1.05
1764746606.2612422,1.02
1764746606.2672799,1.66
1764746606.27316,1.55
1764746606.279466,1.37
1764746606.28587,1.52
1764746606.291949,1.5
1764746606.298223,1.51
1764746606.304405,1.53
1764746606.310614,1.48
1764746606.3169339,1.58
1764746606.323117,1.56
1764746606.329375,1.55
1764746606.335535,1.61
1764746606.341862,1.55
1764746606.348076,1.65
1764746606.354466,1.65
1764746606.360627,1.59
1764746606.367161,1.73
1764746606.373208,1.7
1764746606.379371,1.68
1764746606.385515,1.78
1764746606.391841,1.74
1764746606.3980968,1.83
1764746606.4042659,1.87
1764746606.410573,1.76
1764746606.416887,1.86
1764746606.423051,1.84
1764746606.4293382,1.78
1764746606.435507,1.83
1764746606.441993,1.74
1764746606.44817,1.75
1764746606.4543009,1.71
1764746606.460602,1.58
1764746606.4670138,1.65
1764746606.473077,1.59
1764746606.479263,1.58
1764746606.4856892,1.62
1764746606.491818,1.55
1764746606.498016,1.62
1764746606.504262,1.64
1764746606.5107808,1.54
1764746606.5168781,1.61
1764746606.5230331,1.6
1764746606.5294201,1.59
1764746606.5357702,1.61
1764746606.541961,1.51
1764746606.5481029,1.59
1764746606.554378,1.59
1764746606.560601,1.44
1764746606.567101,1.56
1764746606.573102,1.54
1764746606.579388,1.51
1764746606.585592,1.52
1764746606.5918038,1.45
1764746606.5980968,1.5
1764746606.6045592,1.49
1764746606.610582,1.43
1764746606.6170418,1.58
1764746606.623074,1.6
1764746606.629375,1.58
1764746606.635591,1.64
1764746606.6419241,1.73
1764746606.648138,1.84
1764746606.6542778,1.75
1764746606.6606028,1.66
1764746606.6668868,1.77
1764746606.673269,1.54
1764746606.6792908,1.41
1764746606.685525,1.48
1764746606.691838,1.38
1764746606.698089,1.4
1764746606.7042959,1.45
1764746606.71055,1.37
1764746606.716964,1.44
1764746606.723082,1.41
1764746606.729289,1.42
1764746606.7355971,1.5
1764746606.741764,1.42
1764746606.748136,1.45
1764746606.754251,1.47
1764746606.760524,1.51
1764746606.766997,2.07
1764746606.77308,2.84
1764746606.77935,3.03
1764746606.785578,2.7
1764746606.791984,1.47
1764746606.798167,0.94
1764746606.804351,1.47
1764746606.810503,1.63
1764746606.817038,1.59
1764746606.8231199,1.52
1764746606.829269,1.6
1764746606.83554,1.67
1764746606.8416488,1.61
1764746606.8481688,1.74
1764746606.854303,1.74
1764746606.86054,1.67
1764746606.8672059,1.83
1764746606.872937,1.83
1764746606.879243,1.79
1764746606.8855,1.92
1764746606.891626,1.9
1764746606.897991,1.94
1764746606.904261,1.98
1764746606.910489,1.98
1764746606.9168599,2.11
1764746606.923132,2.12
1764746606.92927,2.17
1764746606.93545,2.27
1764746606.941828,2.2
1764746606.948025,2.34
1764746606.9542332,2.36
1764746606.96056,2.29
1764746606.967532,2.44
1764746606.973092,2.35
1764746606.9793,2.3
1764746606.985386,2.38
1764746606.9916632,2.32
1764746606.998195,2.34
1764746607.004149,2.32
1764746607.010444,2.21
1764746607.017258,2.29
1764746607.023028,2.22
1764746607.029243,2.22
1764746607.035406,2.36
1764746607.0417202,2.3
1764746607.047853,2.31
1764746607.054165,2.31
1764746607.06056,2.28
1764746607.066636,2.36
1764746607.072866,2.26
1764746607.079262,2.3
1764746607.085431,2.42
1764746607.0915682,2.26
1764746607.097943,2.29
1764746607.104115,2.35
1764746607.1105092,2.3
1764746607.1170812,2.36
1764746607.122887,2.25
1764746607.1292238,2.26
1764746607.135519,2.37
1764746607.1416042,2.24
1764746607.147976,2.31
1764746607.1540658,2.33
1764746607.160466,2.23
1764746607.166665,2.36
1764746607.172857,2.34
1764746607.1792269,2.43
1764746607.185548,2.53
1764746607.191654,2.31
1764746607.197907,2.52
1764746607.2041368,2.72
1764746607.210424,2.52
1764746607.217694,2.47
1764746607.2230358,2.42
1764746607.2291782,2.31
1764746607.235369,2.18
1764746607.2416651,2.06
1764746607.247905,2.11
1764746607.254156,2.08
1764746607.260443,1.98
1764746607.267544,2.07
1764746607.272927,1.97
1764746607.279199,1.96
1764746607.285441,2.05
1764746607.291657,1.93
1764746607.2981608,1.96
1764746607.3040829,1.92
1764746607.31037,1.82
1764746607.317142,2.0
1764746607.322944,2.36
1764746607.3291159,3.13
1764746607.335393,3.16
1764746607.341635,3.12
1764746607.3479302,2.09
1764746607.3543391,1.02
1764746607.360474,1.38
1764746607.367203,1.85
1764746607.372873,1.68
1764746607.379242,1.53
1764746607.385509,1.64
1764746607.3915331,1.57
1764746607.39793,1.58
1764746607.404106,1.57
1764746607.410351,1.5
1764746607.4168289,1.56
1764746607.422975,1.53
1764746607.429216,1.55
1764746607.435478,1.56
1764746607.441647,1.44
1764746607.447943,1.55
1764746607.454258,1.56
1764746607.460544,1.46
1764746607.4667578,1.62
1764746607.473085,1.65
1764746607.479157,1.57
1764746607.4853601,1.65
1764746607.491649,1.64
1764746607.497833,1.7
1764746607.504164,1.67
1764746607.51028,1.61
1764746607.51668,1.7
1764746607.522847,1.58
1764746607.529218,1.54
1764746607.5352662,1.52
1764746607.541538,1.34
1764746607.5479,1.36
1764746607.554102,1.35
1764746607.560384,1.15
1764746607.566599,1.19
1764746607.572892,1.16
1764746607.57921,1.09
1764746607.585311,1.05
1764746607.591546,0.96
1764746607.597785,1.03
1764746607.604077,0.94
1764746607.610334,0.82
1764746607.616833,0.89
1764746607.622854,0.77
1764746607.6291132,0.71
1764746607.635413,0.79
1764746607.6416059,0.65
1764746607.6479418,0.61
1764746607.671725,0.55
1764746607.6901,0.48
1764746607.6913228,0.52
1764746607.7082481,0.39
1764746607.708837,0.34
1764746607.708964,0.39
1764746607.709056,0.25
1764746607.709169,0.24
1764746607.70927,0.24
1764746607.735379,0.13
1764746607.736983,0.13
1764746607.737385,0.02
1764746607.737472,0.02
1764746607.737673,0.13
1764746607.741484,0.1
1764746607.753205,0.1
1764746607.755465,0.04
1764746607.761211,0.11
1764746607.766853,0.26
1764746607.7727702,0.06
1764746607.779026,0.0
1764746607.785312,0.06
1764746607.791492,0.0
1764746607.797885,0.0
1764746607.8041441,0.0
1764746607.8102772,0.0
1764746607.8166661,0.0
1764746607.8228438,0.0
1764746607.8290439,0.0
1764746607.835213,0.0
1764746607.841682,0.0
1764746607.848043,0.0
1764746607.8540921,0.0
1764746607.860262,0.0
1764746607.866625,0.0
1764746607.872818,0.0
1764746607.879026,0.0
1764746607.885237,0.0
1764746607.891499,0.0
1764746607.898058,0.16
1764746607.903956,0.62
1764746607.910319,0.0
1764746607.916832,0.0
1764746607.922844,0.0
1764746607.9290628,0.0
1764746607.935353,0.0
1764746607.941625,0.0
1764746607.947816,0.0
1764746607.9540422,0.0
1764746607.960325,0.0
1764746607.9666061,0.0
1764746607.9728441,0.0
1764746607.979052,0.0
1764746607.985285,0.0
1764746607.9914858,0.0
1764746607.997825,0.0
1764746608.004023,0.0
1764746608.010411,0.0
1764746608.01668,0.0
1764746608.0230012,0.0
1764746608.0290198,0.0
1764746608.035151,0.0
1764746608.041418,0.0
1764746608.047838,0.0
1764746608.0539148,0.0
1764746608.060239,0.0
1764746608.066474,0.0
1764746608.0726862,0.0
1764746608.078976,0.0
1764746608.085144,0.0
1764746608.091373,0.0
1764746608.097916,0.0
1764746608.104161,0.0
1764746608.110232,0.0
1764746608.116472,0.0
1764746608.1228359,0.0
1764746608.129073,0.0
1764746608.135205,0.0
1764746608.14157,0.0
1764746608.147775,0.0
1764746608.1540349,0.0
1764746608.160248,0.0
1764746608.166495,0.0
1764746608.172735,0.0
1764746608.1790771,0.0
1764746608.185226,0.0
1764746608.1914,0.0
1764746608.1977642,0.0
1764746608.2040389,0.0
1764746608.210249,0.11
1764746608.216523,0.25
1764746608.222646,0.16
1764746608.228964,0.14
1764746608.2351758,0.25
1764746608.241516,0.28
1764746608.248153,0.39
1764746608.2540312,0.39
1764746608.260245,0.32
1764746608.266628,0.43
1764746608.2727182,0.49
1764746608.2788548,0.5
1764746608.285151,0.61
1764746608.291353,0.65
1764746608.297777,0.71
1764746608.303922,0.77
1764746608.310306,0.91
1764746608.3166761,1.08
1764746608.322811,1.01
1764746608.3289652,1.01
1764746608.335111,1.11
1764746608.3413389,0.93
1764746608.347786,0.88
1764746608.3539221,0.92
1764746608.3601012,0.89
1764746608.366512,0.95
1764746608.372742,0.89
1764746608.379044,0.96
1764746608.3851619,1.06
1764746608.391387,1.02
1764746608.397741,1.1
1764746608.403981,1.14
1764746608.410196,1.06
1764746608.416424,1.16
1764746608.4227579,1.25
1764746608.4289122,1.33
1764746608.435097,1.71
1764746608.441317,2.48
1764746608.447904,2.95
1764746608.453932,2.6
1764746608.46007,1.5
1764746608.466368,0.85
1764746608.472778,1.2
1764746608.4789271,1.49
1764746608.485137,1.44
1764746608.4913752,1.39
1764746608.497737,1.55
1764746608.503979,1.58
1764746608.510093,1.56
1764746608.5163891,1.7
1764746608.5225642,1.67
1764746608.528856,1.68
1764746608.5350652,1.81
1764746608.541348,1.8
1764746608.5478919,1.87
1764746608.5539021,1.91
1764746608.560111,1.86
1764746608.566352,1.98
1764746608.572649,2.02
1764746608.578898,2.06
1764746608.585098,2.14
1764746608.591365,2.13
1764746608.59827,2.22
1764746608.603897,2.3
1764746608.6100821,2.3
1764746608.616381,2.44
1764746608.622538,2.44
1764746608.628907,2.41
1764746608.635176,2.48
1764746608.6415539,2.43
1764746608.647545,2.39
1764746608.654049,2.41
1764746608.6601841,2.43
1764746608.666664,2.41
1764746608.672881,2.32
1764746608.679007,2.36
1764746608.685222,2.42
1764746608.691314,2.33
1764746608.697881,2.39
1764746608.70387,2.43
1764746608.710088,2.41
1764746608.7163289,2.5
1764746608.7225971,2.48
1764746608.7288451,2.49
1764746608.735069,2.53
1764746608.741285,2.49
1764746608.747621,2.55
1764746608.753866,2.55
1764746608.7600682,2.49
1764746608.7663932,2.55
1764746608.772596,2.53
1764746608.778878,2.54
1764746608.7851,2.63
1764746608.791292,2.54
1764746608.797636,2.56
1764746608.803967,2.61
1764746608.8100832,2.56
1764746608.816442,2.6
1764746608.822614,2.52
1764746608.828802,2.56
1764746608.835062,2.69
1764746608.841295,2.67
1764746608.847798,2.7
1764746608.853964,2.7
1764746608.860071,2.76
1764746608.8663151,2.96
1764746608.872538,2.89
1764746608.8787599,2.76
1764746608.88508,2.82
1764746608.891257,2.71
1764746608.897516,2.56
1764746608.9037561,2.52
1764746608.910038,2.49
1764746608.916508,2.5
1764746608.922493,2.47
1764746608.928843,2.48
1764746608.9350421,2.53
1764746608.9413838,2.48
1764746608.947594,2.49
1764746608.9538739,2.51
1764746608.960168,2.48
1764746608.966584,2.49
1764746608.972607,2.42
1764746608.9787729,2.53
1764746608.985099,2.77
1764746608.991463,3.16
1764746608.998019,3.17
1764746609.003948,3.17
1764746609.010131,3.17
1764746609.016393,3.07
1764746609.0225868,1.97
1764746609.028855,1.97
1764746609.035114,2.65
1764746609.0412061,2.5
1764746609.047582,2.26
1764746609.053859,2.37
1764746609.060074,2.45
1764746609.066358,2.47
1764746609.072723,2.4
1764746609.0787032,2.42
1764746609.084984,2.49
1764746609.0912828,2.43
1764746609.097846,2.48
1764746609.103803,2.53
1764746609.109997,2.49
1764746609.116246,2.54
1764746609.122646,2.53
1764746609.1288042,2.56
1764746609.1350138,2.63
1764746609.141665,2.58
1764746609.149482,2.65
1764746609.1575942,2.68
1764746609.170729,2.64
1764746609.194243,2.76
1764746609.2076921,2.71
1764746609.222208,2.69
1764746609.222614,2.74
1764746609.222741,2.65
1764746609.222813,2.62
1764746609.222883,2.62
1764746609.223139,2.58
1764746609.223221,2.6
1764746609.2234108,2.45
1764746609.2288089,2.4
1764746609.24031,2.45
1764746609.241132,2.35
1764746609.249366,2.35
1764746609.2537432,2.37
1764746609.259904,2.31
1764746609.266897,2.41
1764746609.272714,2.34
1764746609.278978,2.32
1764746609.2850602,2.4
1764746609.2912261,2.31
1764746609.29756,2.28
1764746609.30368,2.31
1764746609.309929,2.3
1764746609.316213,2.34
1764746609.322479,2.24
1764746609.328732,2.21
1764746609.3350458,2.29
1764746609.341196,2.21
1764746609.347639,2.19
1764746609.353703,2.19
1764746609.3599901,2.13
1764746609.3663502,2.19
1764746609.372555,2.16
1764746609.378807,2.13
1764746609.385024,2.16
1764746609.391285,2.08
1764746609.397859,2.12
1764746609.403806,2.16
1764746609.40995,2.16
1764746609.416436,2.22
1764746609.422442,2.17
1764746609.4287,2.32
1764746609.43496,2.41
1764746609.4411561,2.23
1764746609.447617,2.2
1764746609.4536781,2.25
1764746609.459975,2.03
1764746609.466143,1.92
1764746609.472407,1.92
1764746609.478647,1.91
1764746609.48488,1.88
1764746609.491086,1.8
1764746609.497594,1.88
1764746609.5036569,1.92
1764746609.509834,1.83
1764746609.516469,1.91
1764746609.522613,1.9
1764746609.5287628,1.86
1764746609.534924,1.83
1764746609.541165,1.8
1764746609.547626,2.0
1764746609.553663,2.48
1764746609.5598059,3.15
1764746609.566106,3.16
1764746609.572375,3.08
1764746609.57857,1.86
1764746609.585069,1.07
1764746609.591125,1.67
1764746609.597455,2.09
1764746609.60373,1.81
1764746609.609849,1.63
1764746609.616169,1.85
1764746609.622379,1.82
1764746609.6285791,1.8
1764746609.6348832,1.88
1764746609.64115,1.85
1764746609.647555,1.9
1764746609.653693,1.88
1764746609.659917,1.82
1764746609.666348,1.93
1764746609.672477,1.91
1764746609.678582,1.95
1764746609.685002,1.97
1764746609.691204,1.91
1764746609.697649,1.98
1764746609.7038121,2.01
1764746609.7098958,1.99
1764746609.716185,2.12
1764746609.722404,2.1
1764746609.728765,2.12
1764746609.734976,2.24
1764746609.741365,2.17
1764746609.747574,2.15
1764746609.753739,2.16
1764746609.759875,2.15
1764746609.766175,2.17
1764746609.7725198,2.02
1764746609.778752,1.99
1764746609.785038,2.1
1764746609.791266,1.99
1764746609.797441,1.95
1764746609.803635,1.92
1764746609.809927,1.86
1764746609.816376,1.93
1764746609.822471,1.86
1764746609.828683,1.87
1764746609.8349812,1.94
1764746609.841274,1.85
1764746609.847593,1.94
1764746609.8536608,1.91
1764746609.8598,1.84
1764746609.866233,1.97
1764746609.8723168,1.89
1764746609.878634,1.87
1764746609.884871,1.91
1764746609.8911092,1.82
1764746609.897475,1.88
1764746609.903723,1.9
1764746609.909869,1.82
1764746609.916024,1.89
1764746609.922268,1.84
1764746609.928533,1.8
1764746609.935056,1.86
1764746609.941022,1.76
1764746609.947569,1.85
1764746609.953572,1.83
1764746609.959844,1.76
1764746609.966035,1.87
1764746609.972409,1.83
1764746609.978678,1.88
1764746609.984954,1.99
1764746609.9912,1.93
1764746609.99747,2.01
1764746610.003666,2.12
1764746610.009791,2.07
1764746610.016132,2.09
1764746610.022542,2.01
1764746610.0290618,1.93
1764746610.0348501,1.79
1764746610.04125,1.66
1764746610.04739,1.72
1764746610.0536408,1.65
1764746610.059896,1.53
1764746610.066192,1.69
1764746610.072407,1.66
1764746610.079221,1.6
1764746610.0848188,1.65
1764746610.091109,1.62
1764746610.097462,1.7
1764746610.1035972,1.64
1764746610.1097898,1.52
1764746610.1161149,1.65
1764746610.1225631,1.86
1764746610.129102,2.54
1764746610.134776,3.15
1764746610.141231,3.02
1764746610.147402,2.24
1764746610.153484,1.05
1764746610.15977,1.11
1764746610.166131,1.69
1764746610.172446,1.57
1764746610.17889,1.44
1764746610.184999,1.56
1764746610.191298,1.54
1764746610.1974258,1.58
1764746610.203516,1.6
1764746610.209845,1.55
1764746610.216133,1.62
1764746610.222399,1.56
1764746610.229027,1.6
1764746610.234949,1.68
1764746610.24129,1.59
1764746610.2474082,1.65
1764746610.253749,1.67
1764746610.2599301,1.65
1764746610.266022,1.74
1764746610.272324,1.67
1764746610.278517,1.69
1764746610.2846909,1.81
1764746610.2910578,1.78
1764746610.2975302,1.87
1764746610.303563,1.91
1764746610.309808,1.88
1764746610.316206,1.99
1764746610.322426,1.93
1764746610.3287868,1.86
1764746610.3347929,1.91
1764746610.3409688,1.84
1764746610.347553,1.87
1764746610.353503,1.81
1764746610.359772,1.7
1764746610.366088,1.76
1764746610.372469,1.7
1764746610.378549,1.7
1764746610.3846662,1.71
1764746610.391052,1.63
1764746610.3973389,1.72
1764746610.403502,1.71
1764746610.409714,1.64
1764746610.415841,1.72
1764746610.4222138,1.7
1764746610.428627,1.71
1764746610.434774,1.72
1764746610.44099,1.68
1764746610.447517,1.75
1764746610.4535282,1.7
1764746610.459736,1.63
1764746610.465894,1.77
1764746610.472286,1.69
1764746610.478613,1.63
1764746610.4847481,1.71
1764746610.4909482,1.65
1764746610.4974809,1.69
1764746610.503468,1.68
1764746610.50969,1.62
1764746610.5160089,1.7
1764746610.52225,1.63
1764746610.5288682,1.67
1764746610.534796,1.75
1764746610.541112,1.62
1764746610.547308,1.7
1764746610.553656,1.78
1764746610.5597608,1.74
1764746610.565991,1.82
1764746610.572294,1.83
1764746610.578906,1.97
1764746610.584818,2.0
1764746610.591041,1.78
1764746610.597423,1.88
1764746610.6034749,1.87
1764746610.60972,1.59
1764746610.634445,1.58
1764746610.639064,1.53
1764746610.645684,1.52
1764746610.6458828,1.55
1764746610.656322,1.49
1764746610.6988978,1.57
1764746610.6993148,1.56
1764746610.699591,1.48
1764746610.699708,1.56
1764746610.699818,1.51
1764746610.6999009,1.5
1764746610.699975,1.53
1764746610.700128,1.52
1764746610.7001941,1.75
1764746610.70337,2.32
1764746610.712956,2.96
1764746610.71613,3.01
1764746610.722207,2.19
1764746610.731669,1.03
1764746610.734645,1.02
1764746610.740899,1.41
1764746610.747408,1.48
1764746610.753654,1.38
1764746610.759735,1.35
1764746610.766065,1.5
1764746610.772179,1.41
1764746610.7783391,1.42
1764746610.784595,1.53
1764746610.790795,1.45
1764746610.7973042,1.48
1764746610.80339,1.48
1764746610.809697,1.5
1764746610.815918,1.59
1764746610.822313,1.46
1764746610.8285298,1.47
1764746610.8346062,1.59
1764746610.8408551,1.61
1764746610.8476522,1.69
1764746610.8533309,1.7
1764746610.8594959,1.7
1764746610.8660128,1.81
1764746610.872101,1.79
1764746610.878401,1.82
1764746610.884567,1.92
1764746610.89092,1.87
1764746610.897373,1.96
1764746610.903357,1.93
1764746610.9096022,1.83
1764746610.9158661,1.85
1764746610.922144,1.75
1764746610.928339,1.81
1764746610.934667,1.82
1764746610.9408,1.63
1764746610.947407,1.66
1764746610.953279,1.67
1764746610.959539,1.55
1764746610.9658182,1.64
1764746610.972008,1.58
1764746610.978292,1.56
1764746610.9845288,1.65
1764746610.9907992,1.56
1764746610.9970949,1.59
1764746611.003229,1.64
1764746611.009622,1.57
1764746611.015848,1.63
1764746611.022048,1.54
1764746611.0284019,1.55
1764746611.034509,1.66
1764746611.040709,1.56
1764746611.0472,1.62
1764746611.0533912,1.59
1764746611.0596108,1.52
1764746611.0657291,1.61
1764746611.072054,1.54
1764746611.078347,1.5
1764746611.0845451,1.55
1764746611.090781,1.5
1764746611.097091,1.54
1764746611.10329,1.5
1764746611.1095219,1.47
1764746611.11585,1.6
1764746611.121957,1.6
1764746611.128403,1.57
1764746611.134534,1.63
1764746611.140758,1.71
1764746611.147143,1.8
1764746611.153321,1.72
1764746611.1595678,1.6
1764746611.1657758,1.67
1764746611.172085,1.44
1764746611.178359,1.34
1764746611.1844559,1.42
1764746611.19087,1.33
1764746611.197275,1.32
1764746611.203485,1.32
1764746611.209554,1.28
1764746611.215774,1.36
1764746611.2219808,1.3
1764746611.2282948,1.3
1764746611.234653,1.36
1764746611.240813,1.27
1764746611.2473118,1.31
1764746611.25333,1.34
1764746611.2595031,1.37
1764746611.265759,1.94
1764746611.2719512,2.65
1764746611.2782469,2.77
1764746611.284523,2.31
1764746611.290758,1.13
1764746611.29703,0.7
1764746611.303189,1.12
1764746611.3095522,1.26
1764746611.315866,1.2
1764746611.322028,1.09
1764746611.32832,1.2
1764746611.334475,1.3
1764746611.3407161,1.18
1764746611.34703,1.21
1764746611.35319,1.23
1764746611.359481,1.2
1764746611.36581,1.29
1764746611.3719769,1.22
1764746611.378263,1.23
1764746611.384465,1.33
1764746611.39073,1.29
1764746611.397286,1.3
1764746611.4033961,1.31
1764746611.409575,1.3
1764746611.415684,1.43
1764746611.422015,1.35
1764746611.428239,1.38
1764746611.434548,1.52
1764746611.4407308,1.49
1764746611.4472709,1.6
1764746611.453303,1.58
1764746611.459619,1.51
1764746611.46602,1.6
1764746611.471964,1.52
1764746611.478229,1.51
1764746611.484341,1.52
1764746611.490726,1.36
1764746611.497243,1.4
1764746611.503291,1.41
1764746611.509527,1.33
1764746611.515813,1.35
1764746611.522002,1.3
1764746611.528362,1.29
1764746611.534528,1.31
1764746611.540735,1.24
1764746611.54746,1.35
1764746611.55328,1.4
1764746611.559438,1.31
1764746611.565792,1.35
1764746611.5719051,1.31
1764746611.5782158,1.34
1764746611.584616,1.37
1764746611.590782,1.27
1764746611.597194,1.35
1764746611.603245,1.35
1764746611.609514,1.27
1764746611.6156712,1.35
1764746611.621856,1.28
1764746611.628166,1.3
1764746611.6344728,1.33
1764746611.640671,1.23
1764746611.647006,1.31
1764746611.653155,1.31
1764746611.6594481,1.23
1764746611.665625,1.3
1764746611.671944,1.25
1764746611.678163,1.28
1764746611.684458,1.48
1764746611.690667,1.42
1764746611.697165,1.43
1764746611.7031832,1.53
1764746611.709426,1.6
1764746611.715654,1.63
1764746611.7218719,1.49
1764746611.728163,1.49
1764746611.734347,1.47
1764746611.740618,1.17
1764746611.747125,1.21
1764746611.753132,1.23
1764746611.759475,1.14
1764746611.7656488,1.22
1764746611.771841,1.15
1764746611.778432,1.15
1764746611.784318,1.22
1764746611.7908401,1.15
1764746611.797066,1.21
1764746611.803352,1.21
1764746611.809456,1.13
1764746611.815636,1.22
1764746611.821841,1.23
1764746611.828162,1.44
1764746611.834374,2.15
1764746611.8406389,2.64
1764746611.846998,2.59
1764746611.853181,1.76
1764746611.8594549,0.55
1764746611.865782,0.74
1764746611.871855,1.24
1764746611.8780968,1.17
1764746611.8843122,1.02
1764746611.89065,1.01
1764746611.896832,1.2
1764746611.903166,1.16
1764746611.909444,1.07
1764746611.9155982,1.18
1764746611.921967,1.15
1764746611.928121,1.14
1764746611.9343848,1.2
1764746611.940612,1.19
1764746611.94699,1.26
1764746611.9531488,1.23
1764746611.959451,1.19
1764746611.96557,1.32
1764746611.971848,1.26
1764746611.978079,1.3
1764746611.984326,1.38
1764746611.990622,1.35
1764746611.9969878,1.49
1764746612.0031471,1.5
1764746612.009388,1.47
1764746612.0156338,1.62
1764746612.0219269,1.54
1764746612.0281699,1.5
1764746612.0345888,1.56
1764746612.040618,1.48
1764746612.047009,1.49
1764746612.0531368,1.46
1764746612.059438,1.41
1764746612.065645,1.41
1764746612.071837,1.31
1764746612.078217,1.3
1764746612.084321,1.3
1764746612.090655,1.19
1764746612.097077,1.27
1764746612.115031,1.28
1764746612.115204,1.21
1764746612.162175,1.31
1764746612.16239,1.3
1764746612.16256,1.31
1764746612.162735,1.36
1764746612.162911,1.28
1764746612.16308,1.36
1764746612.16325,1.36
1764746612.163418,1.3
1764746612.1889112,1.38
1764746612.189111,1.33
1764746612.1894941,1.33
1764746612.1897118,1.39
1764746612.191971,1.29
1764746612.1975539,1.36
1764746612.2030761,1.36
1764746612.2093592,1.27
1764746612.215797,1.38
1764746612.221843,1.33
1764746612.228101,1.31
1764746612.234271,1.36
1764746612.240672,1.28
1764746612.246881,1.36
1764746612.2737951,1.33
1764746612.2740679,1.33
1764746612.274229,1.54
1764746612.274379,1.49
1764746612.280298,1.42
1764746612.284377,1.57
1764746612.2906492,1.67
1764746612.2971258,1.71
1764746612.303156,1.61
1764746612.3100858,1.56
1764746612.31567,1.59
1764746612.3219671,1.32
1764746612.327992,1.28
1764746612.3343308,1.38
1764746612.3404858,1.25
1764746612.346782,1.26
1764746612.352984,1.29
1764746612.3592582,1.26
1764746612.365483,1.34
1764746612.3717299,1.27
1764746612.378015,1.28
1764746612.384215,1.34
1764746612.390477,1.23
1764746612.396749,1.26
1764746612.4029498,1.36
1764746612.409289,1.45
1764746612.415467,2.07
1764746612.42181,2.77
1764746612.4280279,2.83
1764746612.434207,2.23
1764746612.440562,0.87
1764746612.446898,0.75
1764746612.453136,1.34
1764746612.459331,1.34
1764746612.465538,1.25
1764746612.471808,1.23
1764746612.478038,1.3
1764746612.4842749,1.32
1764746612.490497,1.27
1764746612.4968278,1.36
1764746612.502913,1.34
1764746612.509251,1.3
1764746612.515551,1.42
1764746612.522058,1.4
1764746612.528009,1.41
1764746612.534258,1.47
1764746612.540452,1.41
1764746612.546904,1.52
1764746612.553066,1.51
1764746612.559197,1.47
1764746612.565462,1.62
1764746612.571739,1.58
1764746612.578033,1.6
1764746612.584238,1.75
1764746612.5904,1.73
1764746612.596755,1.79
1764746612.6029792,1.84
1764746612.609248,1.78
1764746612.61548,1.84
1764746612.621706,1.76
1764746612.627939,1.74
1764746612.6341782,1.79
1764746612.6404831,1.69
1764746612.646775,1.71
1764746612.652885,1.64
1764746612.6592581,1.56
1764746612.665306,1.66
1764746612.671656,1.58
1764746612.677975,1.59
1764746612.6841931,1.64
1764746612.6905012,1.56
1764746612.697224,1.65
1764746612.702901,1.66
1764746612.709253,1.62
1764746612.7154188,1.73
1764746612.721691,1.69
1764746612.7279181,1.7
1764746612.734157,1.73
1764746612.74047,1.66
1764746612.747245,1.75
1764746612.752888,1.74
1764746612.75912,1.7
1764746612.7655098,1.77
1764746612.7716942,1.71
1764746612.777993,1.74
1764746612.784239,1.79
1764746612.7904892,1.7
1764746612.796742,1.79
1764746612.802885,1.81
1764746612.809226,1.73
1764746612.815425,1.82
1764746612.821804,1.8
1764746612.8279219,1.85
1764746612.834202,1.91
1764746612.840375,1.8
1764746612.846733,1.91
1764746612.8529139,1.92
1764746612.859215,1.9
1764746612.865386,2.03
1764746612.871729,2.01
1764746612.878113,2.12
1764746612.8841448,2.21
1764746612.8904068,2.12
1764746612.8966882,2.37
1764746612.902951,2.49
1764746612.909166,2.34
1764746612.9153972,2.39
1764746612.921543,2.39
1764746612.927924,2.23
1764746612.934156,2.15
1764746612.940404,2.1
1764746612.946759,2.21
1764746612.952828,2.19
1764746612.959187,2.15
1764746612.965394,2.27
1764746612.9716349,2.22
1764746612.9779499,2.22
1764746612.984204,2.32
1764746612.9903848,2.3
1764746612.9967942,2.39
1764746613.002839,2.33
1764746613.009056,2.33
1764746613.0154262,2.59
1764746613.021618,2.89
1764746613.02782,3.17
1764746613.034076,3.17
1764746613.040368,3.18
1764746613.046722,3.17
1764746613.052934,2.72
1764746613.0591922,1.9
1764746613.065365,2.42
1764746613.071576,2.79
1764746613.077816,2.57
1764746613.084107,2.51
1764746613.090386,2.57
1764746613.0966458,2.7
1764746613.1027808,2.7
1764746613.10908,2.65
1764746613.11539,2.75
1764746613.121621,2.72
1764746613.127885,2.8
1764746613.134079,2.87
1764746613.140316,2.75
1764746613.146615,2.85
1764746613.152818,2.91
1764746613.159075,2.86
1764746613.1653361,3.0
1764746613.171687,2.95
1764746613.177869,2.95
1764746613.184117,3.11
1764746613.190358,3.06
1764746613.196801,3.13
1764746613.202871,3.15
1764746613.209137,3.15
1764746613.215269,3.16
1764746613.221626,3.16
1764746613.227786,3.16
1764746613.234058,3.16
1764746613.2402902,3.16
1764746613.2466729,3.16
1764746613.2528052,3.16
1764746613.259135,3.16
1764746613.265362,3.15
1764746613.271704,3.12
1764746613.277844,3.11
1764746613.284037,3.08
1764746613.290306,2.97
1764746613.296591,3.02
1764746613.302851,2.99
1764746613.309161,2.95
1764746613.3153322,3.01
1764746613.321656,2.88
1764746613.3277912,2.9
1764746613.33407,3.0
1764746613.3403141,2.83
1764746613.3467221,2.84
1764746613.3528042,2.86
1764746613.358998,2.74
1764746613.3652961,2.83
1764746613.371522,2.74
1764746613.377781,2.68
1764746613.384039,2.73
1764746613.3903098,2.61
1764746613.396808,2.64
1764746613.4027672,2.59
1764746613.409009,2.5
1764746613.415369,2.56
1764746613.421566,2.44
1764746613.428153,2.41
1764746613.434071,2.43
1764746613.4402401,2.29
1764746613.446722,2.34
1764746613.452851,2.26
1764746613.459014,2.17
1764746613.4652648,2.26
1764746613.471623,2.09
1764746613.477744,2.02
1764746613.483989,2.18
1764746613.490307,2.11
1764746613.496743,2.03
1764746613.502743,2.06
1764746613.509109,2.09
1764746613.515276,2.16
1764746613.521569,1.96
1764746613.527724,1.88
1764746613.53398,1.88
1764746613.540302,1.56
1764746613.546597,1.48
1764746613.55273,1.48
1764746613.5591302,1.3
1764746613.565257,1.3
1764746613.571429,1.2
1764746613.577836,1.2
1764746613.5839949,1.22
1764746613.590326,1.02
1764746613.596517,1.09
1764746613.602945,1.06
1764746613.6090949,0.89
1764746613.615394,0.89
1764746613.621484,0.88
1764746613.627786,1.03
1764746613.6339872,1.55
1764746613.6402812,2.12
1764746613.646656,2.16
1764746613.678009,1.44
1764746613.7036538,0.21
1764746613.708288,0.03
1764746613.708458,0.31
1764746613.711234,0.37
1764746613.718731,0.28
1764746613.718836,0.14
1764746613.718934,0.19
1764746613.7228422,0.18
1764746613.7277598,0.11
1764746613.7366028,0.16
1764746613.737765,0.02
1764746613.737904,0.0
1764746613.738233,0.08
1764746613.740511,0.02
1764746613.746573,0.01
1764746613.7579122,0.0
1764746613.75898,0.0
1764746613.765273,0.0
1764746613.771884,0.0
1764746613.778193,0.0
1764746613.7840629,0.0
1764746613.7903008,0.0
1764746613.7965949,0.0
1764746613.802688,0.0
1764746613.809101,0.0
1764746613.81525,0.0
1764746613.821483,0.0
1764746613.82774,0.0
1764746613.834021,0.0
1764746613.840163,0.0
1764746613.846512,0.0
1764746613.852664,0.0
1764746613.858892,0.0
1764746613.865142,0.0
1764746613.871441,0.0
1764746613.877656,0.0
1764746613.883894,0.0
1764746613.890142,0.0
1764746613.896424,0.0
1764746613.902678,0.0
1764746613.908947,0.0
1764746613.915185,0.0
1764746613.921463,0.0
1764746613.927715,0.0
1764746613.9339159,0.0
1764746613.9401479,0.0
1764746613.946419,0.0
1764746613.952675,0.0
1764746613.958905,0.0
1764746613.965195,0.0
1764746613.97139,0.0
1764746613.977948,0.0
1764746613.983892,0.0
1764746613.990201,0.0
1764746613.9964218,0.0
1764746614.0027368,0.0
1764746614.009218,0.0
1764746614.015088,0.0
1764746614.021379,0.0
1764746614.02799,0.0
1764746614.0338612,0.0
1764746614.040171,0.0
1764746614.046402,0.0
1764746614.052724,0.0
1764746614.059001,0.0
1764746614.065206,0.0
1764746614.0714161,0.0
1764746614.078166,0.0
1764746614.083915,0.0
1764746614.090079,0.0
1764746614.0964851,0.0
1764746614.1027431,0.0
1764746614.1088908,0.0
1764746614.115158,0.0
1764746614.1214468,0.0
1764746614.128055,0.0
1764746614.1339872,0.0
1764746614.140277,0.0
1764746614.1466,0.0
1764746614.152688,0.0
1764746614.159015,0.0
1764746614.165226,0.0
1764746614.171524,0.0
1764746614.178008,0.0
1764746614.18399,0.0
1764746614.190277,0.0
1764746614.196527,0.0
1764746614.202688,0.0
1764746614.208935,0.0
1764746614.215362,0.0
1764746614.221455,0.28
1764746614.227938,1.4
1764746614.233875,1.71
1764746614.2400699,1.17
1764746614.2463858,0.22
1764746614.252623,0.0
1764746614.258826,0.0
1764746614.265049,0.0
1764746614.271955,0.0
1764746614.278676,0.22
1764746614.283851,0.31
1764746614.290048,0.19
1764746614.296432,0.25
1764746614.302797,0.4
1764746614.309707,0.4
1764746614.3151171,0.43
1764746614.321335,0.43
1764746614.3279748,0.5
1764746614.33379,0.6
1764746614.340063,0.53
1764746614.346293,0.66
1764746614.352622,0.75
1764746614.358903,0.72
1764746614.365142,0.84
1764746614.3713999,0.85
1764746614.377889,0.91
1764746614.3837929,1.02
1764746614.390086,1.01
1764746614.396409,1.14
1764746614.402661,1.25
1764746614.408881,1.21
1764746614.415194,1.3
1764746614.421698,1.28
1764746614.427773,1.3
1764746614.433894,1.38
1764746614.440109,1.29
1764746614.4462872,1.31
1764746614.452555,1.32
1764746614.458842,1.26
1764746614.4651039,1.3
1764746614.471274,1.22
1764746614.478013,1.24
1764746614.483716,1.34
1764746614.489986,1.27
1764746614.4962718,1.32
1764746614.502509,1.33
1764746614.508906,1.33
1764746614.515021,1.46
1764746614.521343,1.41
1764746614.5278232,1.41
1764746614.533754,1.5
1764746614.540224,1.45
1764746614.546294,1.5
1764746614.55282,1.51
1764746614.5589051,1.48
1764746614.565071,1.59
1764746614.571351,1.56
1764746614.5777762,1.51
1764746614.583758,1.58
1764746614.590014,1.56
1764746614.5963252,1.61
1764746614.602518,1.59
1764746614.6087968,1.56
1764746614.615079,1.68
1764746614.621359,1.63
1764746614.627753,1.62
1764746614.633736,1.71
1764746614.64,1.66
1764746614.6462321,1.7
1764746614.652493,1.7
1764746614.658766,1.68
1764746614.665012,1.83
1764746614.6712441,1.86
1764746614.6778429,1.85
1764746614.683775,1.94
1764746614.690017,2.01
1764746614.696311,2.13
1764746614.702527,2.14
1764746614.7088,2.05
1764746614.715004,2.09
1764746614.7217019,1.89
1764746614.727575,1.76
1764746614.733726,1.84
1764746614.7400901,1.75
1764746614.746363,1.78
1764746614.752527,1.78
1764746614.7588632,1.74
1764746614.765001,1.82
1764746614.771426,1.76
1764746614.778093,1.74
1764746614.783673,1.75
1764746614.7900128,1.72
1764746614.796215,1.76
1764746614.8025038,1.74
1764746614.808946,1.79
1764746614.815083,2.18
1764746614.821266,2.87
1764746614.827713,3.16
1764746614.833697,3.14
1764746614.840014,2.29
1764746614.846304,1.12
1764746614.852445,1.47
1764746614.858761,1.96
1764746614.865011,1.89
1764746614.8713028,1.67
1764746614.877751,1.76
1764746614.88398,1.93
1764746614.8901372,1.8
1764746614.896256,1.88
1764746614.902418,1.96
1764746614.9086962,1.87
1764746614.9150112,1.97
1764746614.921361,1.93
1764746614.927764,1.97
1764746614.933908,2.06
1764746614.9400792,1.99
1764746614.9462972,2.08
1764746614.952644,2.11
1764746614.958942,2.04
1764746614.965052,2.16
1764746614.971222,2.17
1764746614.977813,2.19
1764746614.9837692,2.27
1764746614.990046,2.27
1764746614.996206,2.33
1764746615.002453,2.32
1764746615.0087638,2.3
1764746615.014972,2.4
1764746615.02126,2.33
1764746615.028096,2.28
1764746615.033751,2.3
1764746615.039959,2.21
1764746615.04617,2.3
1764746615.052472,2.27
1764746615.0586948,2.12
1764746615.064876,2.22
1764746615.07121,2.18
1764746615.077892,2.17
1764746615.0836911,2.2
1764746615.090009,2.11
1764746615.0961878,2.19
1764746615.102317,2.21
1764746615.1087759,2.16
1764746615.114947,2.24
1764746615.121248,2.21
1764746615.1275032,2.17
1764746615.133726,2.26
1764746615.1400042,2.25
1764746615.149754,2.28
1764746615.1533802,2.23
1764746615.18134,2.14
1764746615.1840708,2.25
1764746615.2095308,2.23
1764746615.209625,2.2
1764746615.228713,2.26
1764746615.2321548,2.17
1764746615.232307,2.23
1764746615.234493,2.28
1764746615.2352068,2.17
1764746615.2353501,2.25
1764746615.235438,2.21
1764746615.2355258,2.19
1764746615.2356741,2.23
1764746615.239893,2.19
1764746615.246172,2.27
1764746615.253461,2.26
1764746615.260683,2.23
1764746615.264982,2.32
1764746615.271219,2.27
1764746615.2783082,2.34
1764746615.2837791,2.48
1764746615.289911,2.4
1764746615.296334,2.45
1764746615.302442,2.6
1764746615.309068,2.56
1764746615.314875,2.61
1764746615.32112,2.49
1764746615.3274,2.45
1764746615.333647,2.37
1764746615.339894,2.17
1764746615.34607,2.23
1764746615.352623,2.22
1764746615.358572,2.12
1764746615.364943,2.2
1764746615.37114,2.17
1764746615.377553,2.15
1764746615.383543,2.22
1764746615.3898518,2.16
1764746615.39616,2.18
1764746615.4023,2.22
1764746615.408554,2.15
1764746615.4148211,2.24
1764746615.4211001,2.27
1764746615.4274619,2.62
1764746615.43364,3.17
1764746615.439866,3.17
1764746615.4460878,3.17
1764746615.452306,2.94
1764746615.458602,1.55
1764746615.464742,1.61
1764746615.47107,2.25
1764746615.477736,2.23
1764746615.483648,2.03
1764746615.489898,2.0
1764746615.496074,2.15
1764746615.502357,2.18
1764746615.5085728,2.08
1764746615.51475,2.12
1764746615.521106,2.14
1764746615.527746,2.19
1764746615.533754,2.23
1764746615.5400052,2.12
1764746615.54634,2.18
1764746615.552532,2.21
1764746615.5587368,2.17
1764746615.565102,2.29
1764746615.571132,2.26
1764746615.5774531,2.25
1764746615.5837,2.39
1764746615.5898728,2.34
1764746615.596341,2.43
1764746615.60251,2.48
1764746615.608691,2.45
1764746615.614922,2.58
1764746615.621061,2.53
1764746615.62749,2.48
1764746615.633565,2.55
1764746615.6398132,2.5
1764746615.646084,2.53
1764746615.652292,2.48
1764746615.658603,2.34
1764746615.664744,2.39
1764746615.6710489,2.36
1764746615.6773279,2.28
1764746615.68347,2.32
1764746615.6897469,2.23
1764746615.696061,2.27
1764746615.702306,2.32
1764746615.708488,2.25
1764746615.714725,2.27
1764746615.721049,2.23
1764746615.72734,2.26
1764746615.733557,2.35
1764746615.7398489,2.26
1764746615.7460139,2.28
1764746615.752239,2.28
1764746615.7585769,2.22
1764746615.764859,2.3
1764746615.771002,2.23
1764746615.777406,2.21
1764746615.78349,2.32
1764746615.789794,2.22
1764746615.7960372,2.2
1764746615.802342,2.23
1764746615.808547,2.17
1764746615.814684,2.24
1764746615.821219,2.19
1764746615.827359,2.17
1764746615.833573,2.19
1764746615.839712,2.09
1764746615.8460858,2.19
1764746615.852298,2.23
1764746615.8585322,2.13
1764746615.864744,2.14
1764746615.871039,2.08
1764746615.877444,2.08
1764746615.8834848,2.16
1764746615.889796,2.08
1764746615.895912,2.19
1764746615.902236,2.27
1764746615.908562,2.16
1764746615.9147441,2.29
1764746615.9209862,2.38
1764746615.927307,2.36
1764746615.933463,2.34
1764746615.939726,2.22
1764746615.9459982,2.25
1764746615.952225,2.13
1764746615.958625,1.94
1764746615.964768,1.99
1764746615.970973,1.93
1764746615.977349,1.87
1764746615.983545,1.94
1764746615.9897249,1.86
1764746615.996028,1.89
1764746616.00233,1.88
1764746616.0085309,1.82
1764746616.014766,1.91
1764746616.021159,1.85
1764746616.0272288,1.82
1764746616.033481,1.89
1764746616.039707,1.91
1764746616.04598,2.43
1764746616.0521998,3.16
1764746616.0584671,3.16
1764746616.064693,3.13
1764746616.0709288,2.08
1764746616.077227,1.14
1764746616.08357,1.64
1764746616.089675,1.88
1764746616.095974,1.85
1764746616.102171,1.82
1764746616.108466,1.77
1764746616.11475,1.85
1764746616.120946,1.76
1764746616.127257,1.77
1764746616.133473,1.89
1764746616.1396868,1.77
1764746616.145844,1.79
1764746616.152159,1.81
1764746616.158449,1.78
1764746616.164682,1.86
1764746616.1709492,1.78
1764746616.177342,1.81
1764746616.1834838,1.92
1764746616.189695,1.8
1764746616.1959958,1.85
1764746616.202204,1.91
1764746616.208417,1.85
1764746616.21469,1.99
1764746616.220897,1.98
1764746616.2271569,1.99
1764746616.2334,2.11
1764746616.2396412,2.03
1764746616.245899,2.05
1764746616.252204,2.04
1764746616.258431,1.95
1764746616.264661,2.03
1764746616.2709498,1.94
1764746616.277306,1.88
1764746616.2835178,1.9
1764746616.289738,1.74
1764746616.295914,1.76
1764746616.302233,1.77
1764746616.308506,1.68
1764746616.314722,1.74
1764746616.320918,1.7
1764746616.32738,1.71
1764746616.333455,1.73
1764746616.339675,1.65
1764746616.345896,1.73
1764746616.35218,1.71
1764746616.358363,1.6
1764746616.364654,1.72
1764746616.370956,1.67
1764746616.37732,1.63
1764746616.383317,1.69
1764746616.3896809,1.58
1764746616.3958552,1.61
1764746616.402168,1.63
1764746616.408389,1.55
1764746616.414643,1.62
1764746616.420913,1.55
1764746616.4271832,1.52
1764746616.4334002,1.57
1764746616.4396448,1.48
1764746616.44589,1.54
1764746616.452151,1.53
1764746616.458379,1.45
1764746616.464673,1.54
1764746616.471018,1.48
1764746616.477159,1.43
1764746616.483458,1.51
1764746616.489687,1.54
1764746616.495834,1.65
1764746616.502149,1.62
1764746616.5083652,1.6
1764746616.5146801,1.83
1764746616.5208828,1.78
1764746616.5272782,1.67
1764746616.533391,1.74
1764746616.5395992,1.59
1764746616.545834,1.43
1764746616.5521479,1.4
1764746616.5583842,1.33
1764746616.5646038,1.35
1764746616.570854,1.27
1764746616.5860648,1.29
1764746616.592833,1.36
1764746616.592988,1.28
1764746616.625649,1.35
1764746616.641372,1.33
1764746616.642347,1.23
1764746616.6424608,1.34
1764746616.642561,1.27
1764746616.6426618,1.28
1764746616.6436648,1.51
1764746616.6437628,1.85
1764746616.646612,2.61
1764746616.652398,2.8
1764746616.659368,2.29
1764746616.664782,1.24
1764746616.670966,0.63
1764746616.677084,1.08
1764746616.6833768,1.37
1764746616.6901782,1.09
1764746616.6959481,1.12
1764746616.702076,1.24
1764746616.708405,1.2
1764746616.7146208,1.24
1764746616.7208982,1.19
1764746616.727349,1.23
1764746616.7334569,1.27
1764746616.7398489,1.18
1764746616.745955,1.31
1764746616.752061,1.32
1764746616.758427,1.23
1764746616.7645938,1.33
1764746616.770751,1.33
1764746616.777003,1.36
1764746616.7833111,1.41
1764746616.7895749,1.32
1764746616.795766,1.47
1764746616.8020558,1.5
1764746616.808279,1.45
1764746616.814506,1.62
1764746616.820838,1.61
1764746616.827017,1.61
1764746616.833277,1.71
1764746616.8395362,1.6
1764746616.845771,1.61
1764746616.85198,1.6
1764746616.8582752,1.5
1764746616.8646579,1.56
1764746616.870862,1.47
1764746616.877323,1.4
1764746616.883321,1.45
1764746616.8896132,1.35
1764746616.895765,1.4
1764746616.90203,1.4
1764746616.9083679,1.29
1764746616.9146152,1.38
1764746616.9208362,1.36
1764746616.92719,1.35
1764746616.933314,1.41
1764746616.9395351,1.35
1764746616.945712,1.43
1764746616.952099,1.42
1764746616.958355,1.31
1764746616.964462,1.4
1764746616.970752,1.38
1764746616.976971,1.35
1764746616.9831948,1.42
1764746616.989503,1.34
1764746616.9957492,1.37
1764746617.002024,1.36
1764746617.008301,1.3
1764746617.0144792,1.4
1764746617.020803,1.32
1764746617.0270321,1.3
1764746617.0332859,1.37
1764746617.0395079,1.25
1764746617.045714,1.3
1764746617.052005,1.3
1764746617.058263,1.23
1764746617.06447,1.32
1764746617.070724,1.28
1764746617.077002,1.22
1764746617.083162,1.38
1764746617.089535,1.4
1764746617.095778,1.43
1764746617.10214,1.44
1764746617.1083488,1.51
1764746617.114532,1.64
1764746617.120692,1.54
1764746617.126988,1.51
1764746617.133203,1.57
1764746617.1396039,1.35
1764746617.145684,1.22
1764746617.151996,1.26
1764746617.1582599,1.17
1764746617.164414,1.2
1764746617.1707,1.12
1764746617.1770391,1.12
1764746617.183168,1.22
1764746617.189455,1.12
1764746617.195672,1.16
1764746617.2019699,1.17
1764746617.2081978,1.11
1764746617.214444,1.21
1764746617.22079,1.11
1764746617.227106,1.11
1764746617.233131,1.44
1764746617.2394218,2.0
1764746617.245683,2.62
1764746617.251937,2.54
1764746617.258194,1.75
1764746617.2644339,0.7
1764746617.2706912,0.62
1764746617.2770538,1.17
1764746617.283364,1.27
1764746617.28955,0.97
1764746617.295768,1.04
1764746617.30193,1.16
1764746617.3081632,1.1
1764746617.314353,1.19
1764746617.320679,1.14
1764746617.326921,1.14
1764746617.333139,1.26
1764746617.339494,1.16
1764746617.3456771,1.24
1764746617.351912,1.28
1764746617.358179,1.23
1764746617.364414,1.37
1764746617.370764,1.3
1764746617.3769379,1.29
1764746617.3831859,1.44
1764746617.389421,1.4
1764746617.395686,1.46
1764746617.402009,1.52
1764746617.408171,1.51
1764746617.41437,1.64
1764746617.420697,1.62
1764746617.42694,1.62
1764746617.43309,1.73
1764746617.439372,1.62
1764746617.445655,1.57
1764746617.451945,1.53
1764746617.458285,1.56
1764746617.464455,1.58
1764746617.470695,1.41
1764746617.476943,1.41
1764746617.4830852,1.47
1764746617.489374,1.29
1764746617.495639,1.32
1764746617.501923,1.34
1764746617.508377,1.28
1764746617.514297,1.38
1764746617.520627,1.34
1764746617.5268679,1.34
1764746617.5330791,1.46
1764746617.539489,1.36
1764746617.545613,1.35
1764746617.551999,1.38
1764746617.558228,1.34
1764746617.564606,1.47
1764746617.570553,1.43
1764746617.576864,1.37
1764746617.583084,1.44
1764746617.58938,1.39
1764746617.595666,1.36
1764746617.601915,1.35
1764746617.608395,1.35
1764746617.614312,1.47
1764746617.620627,1.35
1764746617.6268768,1.33
1764746617.633066,1.49
1764746617.639501,1.36
1764746617.645674,1.44
1764746617.652033,1.49
1764746617.658228,1.31
1764746617.664345,1.46
1764746617.670633,1.42
1764746617.6770968,1.41
1764746617.683131,1.61
1764746617.689429,1.59
1764746617.6956558,1.55
1764746617.701959,1.64
1764746617.7081861,1.72
1764746617.7143092,1.85
1764746617.7206452,1.82
1764746617.7269208,1.73
1764746617.733122,1.49
1764746617.73933,1.2
1764746617.745584,1.39
1764746617.751874,1.46
1764746617.7582972,1.27
1764746617.764308,1.37
1764746617.770614,1.41
1764746617.776831,1.49
1764746617.783009,1.53
1764746617.789268,1.37
1764746617.795506,1.44
1764746617.8018591,1.25
1764746617.8080819,1.15
1764746617.814326,1.37
1764746617.820565,1.27
1764746617.8268318,1.29
1764746617.833026,1.98
1764746617.839267,2.66
1764746617.845577,2.68
1764746617.851834,2.0
1764746617.858196,0.82
1764746617.8643389,0.6
1764746617.8705988,1.13
1764746617.876904,1.34
1764746617.883012,1.12
1764746617.88925,0.75
1764746617.895555,0.88
1764746617.901844,1.13
1764746617.908229,0.9
1764746617.914289,0.93
1764746617.920547,1.07
1764746617.926827,1.1
1764746617.933007,1.07
1764746617.939248,0.99
1764746617.94558,1.23
1764746617.9518342,1.4
1764746617.958087,1.12
1764746617.964216,1.04
1764746617.9705229,1.22
1764746617.976932,1.46
1764746617.982975,1.52
1764746617.989224,1.12
1764746617.995641,1.18
1764746618.001882,1.58
1764746618.0080209,1.42
1764746618.014333,1.44
1764746618.020841,1.54
1764746618.026835,1.58
1764746618.0329468,1.71
1764746618.039623,1.63
1764746618.045588,1.69
1764746618.051758,1.63
1764746618.058062,1.5
1764746618.064311,1.56
1764746618.070571,1.52
1764746618.076894,1.5
1764746618.082945,1.61
1764746618.08921,1.41
1764746618.0955021,1.44
1764746618.10175,1.64
1764746618.108029,1.35
1764746618.114261,1.38
1764746618.120608,1.59
1764746618.1267252,1.4
1764746618.132996,1.47
1764746618.139206,1.53
1764746618.1455328,1.62
1764746618.151775,1.62
1764746618.158218,1.4
1764746618.164282,1.26
1764746618.17056,1.38
1764746618.176715,1.55
1764746618.182983,1.51
1764746618.189227,1.37
1764746618.1955829,1.5
1764746618.201804,1.49
1764746618.207975,1.37
1764746618.214282,1.72
1764746618.220504,1.77
1764746618.2268171,1.45
1764746618.232956,1.49
1764746618.2392662,1.51
1764746618.245599,1.55
1764746618.2517672,1.43
1764746618.258122,1.25
1764746618.2661881,1.58
1764746618.280191,1.78
1764746618.291617,1.63
1764746618.291776,1.64
1764746618.291935,1.84
1764746618.299826,1.96
1764746618.315966,1.9
1764746618.353162,1.75
1764746618.353293,1.99
1764746618.353376,1.88
1764746618.353462,1.81
1764746618.3535948,1.82
1764746618.3538182,1.64
1764746618.3539588,1.73
1764746618.354065,1.81
1764746618.3580759,1.82
1764746618.3646631,2.13
1764746618.3719392,1.92
1764746618.377215,1.64
1764746618.3830059,1.95
1764746618.390796,2.22
1764746618.395452,1.96
1764746618.4017012,1.99
1764746618.40801,2.35
1764746618.414251,2.88
1764746618.420506,3.16
1764746618.426791,3.17
1764746618.432998,3.17
1764746618.4393501,3.04
1764746618.445363,1.9
1764746618.451693,1.72
1764746618.458103,2.56
1764746618.464275,2.71
1764746618.4706209,1.99
1764746618.4767292,2.03
1764746618.482985,2.62
1764746618.489202,2.6
1764746618.495393,2.35
1764746618.501652,2.44
1764746618.507911,2.54
1764746618.5141828,2.69
1764746618.520371,2.68
1764746618.5266829,2.51
1764746618.533032,2.69
1764746618.539171,2.98
1764746618.545404,3.14
1764746618.551726,2.54
1764746618.557895,2.23
1764746618.564103,3.08
1764746618.570369,3.09
1764746618.576642,2.6
1764746618.582927,2.74
1764746618.5892212,3.04
1764746618.595382,3.11
1764746618.601679,2.96
1764746618.6079009,2.94
1764746618.6141188,3.16
1764746618.620367,3.16
1764746618.626632,3.15
1764746618.633002,3.03
1764746618.639301,2.62
1764746618.64543,2.49
1764746618.6516328,2.65
1764746618.6578891,2.62
1764746618.664104,2.64
1764746618.670409,2.58
1764746618.6766112,2.51
1764746618.682944,2.61
1764746618.6892679,2.54
1764746618.695327,2.53
1764746618.7016408,2.78
1764746618.707968,2.61
1764746618.7140841,2.23
1764746618.72033,2.31
1764746618.726651,2.32
1764746618.7329369,2.55
1764746618.739145,2.53
1764746618.745367,2.49
1764746618.751657,2.52
1764746618.75789,2.41
1764746618.764082,2.5
1764746618.7703302,2.37
1764746618.77659,2.3
1764746618.782882,2.37
1764746618.789067,2.24
1764746618.795359,2.3
1764746618.80164,2.31
1764746618.8085802,2.14
1764746618.814042,2.12
1764746618.820331,1.91
1764746618.8265889,1.86
1764746618.83295,2.09
1764746618.839348,2.0
1764746618.8454368,1.98
1764746618.8519108,2.12
1764746618.857962,2.03
1764746618.864353,2.17
1764746618.870455,2.05
1764746618.87664,1.83
1764746618.882882,1.86
1764746618.889268,1.61
1764746618.895364,1.47
1764746618.901668,1.48
1764746618.907903,1.28
1764746618.914034,1.14
1764746618.9204469,1.11
1764746618.9265878,1.06
1764746618.9328132,1.16
1764746618.939048,1.19
1764746618.945317,1.07
1764746618.951603,0.67
1764746618.9578722,0.7
1764746618.964105,1.1
1764746618.970293,0.72
1764746618.976584,0.48
1764746618.982938,1.21
1764746618.9892569,1.91
1764746618.995444,1.99
1764746619.0015519,1.6
1764746619.0078201,0.33
1764746619.0139809,0.0
1764746619.020372,0.0
1764746619.026607,0.02
1764746619.032851,0.28
1764746619.039208,0.08
1764746619.0453372,0.0
1764746619.05163,0.03
1764746619.057874,0.0
1764746619.0640378,0.0
1764746619.070316,0.0
1764746619.076648,0.0
1764746619.082737,0.0
1764746619.0891929,0.0
1764746619.0953212,0.0
1764746619.1015759,0.0
1764746619.107946,0.0
1764746619.114018,0.0
1764746619.12033,0.0
1764746619.1265469,0.0
1764746619.132837,0.0
1764746619.139147,0.0
1764746619.145333,0.0
1764746619.151671,0.0
1764746619.157964,0.0
1764746619.1639931,0.0
1764746619.1702132,0.0
1764746619.176571,0.0
1764746619.182806,0.0
1764746619.189069,0.0
1764746619.195273,0.0
1764746619.20154,0.0
1764746619.2080781,0.0
1764746619.213984,0.0
1764746619.220192,0.0
1764746619.226445,0.0
1764746619.23279,0.0
1764746619.23904,0.0
1764746619.2452312,0.0
1764746619.2515562,0.0
1764746619.258162,0.0
1764746619.2639968,0.0
1764746619.270209,0.0
1764746619.2765272,0.0
1764746619.28282,0.0
1764746619.2890902,0.0
1764746619.295289,0.0
1764746619.301719,0.0
1764746619.3082728,0.0
1764746619.3140328,0.0
1764746619.3203,0.0
1764746619.326596,0.0
1764746619.332848,0.0
1764746619.3390841,0.0
1764746619.34533,0.0
1764746619.351736,0.0
1764746619.357888,0.0
1764746619.363988,0.0
1764746619.3702679,0.0
1764746619.376794,0.0
1764746619.382782,0.0
1764746619.389292,0.0
1764746619.39533,0.0
1764746619.4016151,0.15
1764746619.408363,0.42
1764746619.414073,0.45
1764746619.420318,0.45
1764746619.426489,0.67
1764746619.432801,0.85
1764746619.438991,0.72
1764746619.445301,0.82
1764746619.451571,0.84
1764746619.458292,0.57
1764746619.4640682,0.83
1764746619.470411,0.87
1764746619.476584,0.57
1764746619.482813,0.7
1764746619.489076,0.84
1764746619.4952378,0.88
1764746619.501472,0.96
1764746619.507822,0.97
1764746619.5139682,1.11
1764746619.520252,1.18
1764746619.526485,1.16
1764746619.532728,1.26
1764746619.53905,1.24
1764746619.545185,1.42
1764746619.551628,1.89
1764746619.5580192,2.62
1764746619.564118,3.04
1764746619.570224,2.81
1764746619.57659,1.64
1764746619.5827909,0.74
1764746619.588943,1.23
1764746619.5952,1.8
1764746619.601564,1.75
1764746619.607849,1.53
1764746619.6140091,1.63
1764746619.620211,1.81
1764746619.626624,1.82
1764746619.6327329,1.92
1764746619.639019,1.93
1764746619.645191,1.96
1764746619.6514509,1.97
1764746619.658307,2.0
1764746619.663975,2.22
1764746619.6703,2.21
1764746619.676503,2.13
1764746619.6828108,2.3
1764746619.68902,2.32
1764746619.695122,2.39
1764746619.7013912,2.54
1764746619.7079308,2.43
1764746619.714022,2.65
1764746619.720132,2.83
1764746619.726469,2.67
1764746619.732728,2.67
1764746619.738969,2.77
1764746619.756219,2.92
1764746619.756437,2.9
1764746619.792602,2.82
1764746619.812994,2.92
1764746619.823113,2.88
1764746619.8324711,2.76
1764746619.839523,2.85
1764746619.840229,2.75
1764746619.8404438,2.76
1764746619.840632,2.92
1764746619.840847,2.75
1764746619.841066,2.71
1764746619.841263,2.73
1764746619.841525,2.72
1764746619.841845,2.86
1764746619.8421571,2.8
1764746619.845258,2.71
1764746619.8515258,2.81
1764746619.862109,2.81
1764746619.863921,2.86
1764746619.870213,2.85
1764746619.876586,2.86
1764746619.8827531,3.07
1764746619.889083,2.9
1764746619.895162,2.64
1764746619.90141,2.77
1764746619.9079602,2.83
1764746619.913943,2.87
1764746619.920131,2.8
1764746619.926408,2.74
1764746619.932576,2.89
1764746619.938817,2.81
1764746619.945098,2.77
1764746619.951423,2.83
1764746619.958045,2.76
1764746619.963957,2.77
1764746619.970121,2.79
1764746619.976307,2.74
1764746619.982559,2.89
1764746619.988857,2.89
1764746619.995126,2.82
1764746620.001319,2.91
1764746620.00786,3.05
1764746620.0138812,3.11
1764746620.0202088,2.99
1764746620.026388,2.87
1764746620.032545,2.97
1764746620.038802,2.74
1764746620.045134,2.59
1764746620.051307,2.71
1764746620.058039,2.58
1764746620.063827,2.56
1764746620.070051,2.61
1764746620.0763352,2.52
1764746620.082651,2.55
1764746620.088972,2.56
1764746620.095156,2.57
1764746620.101482,2.57
1764746620.107824,2.47
1764746620.1139588,2.5
1764746620.1201322,2.47
1764746620.126318,2.52
1764746620.132586,2.95
1764746620.138836,3.16
1764746620.1453,3.17
1764746620.151399,3.17
1764746620.157738,3.17
1764746620.163899,2.85
1764746620.170059,1.8
1764746620.1762109,1.99
1764746620.182654,2.62
1764746620.188833,2.41
1764746620.1951191,2.28
1764746620.201371,2.37
1764746620.207963,2.14
1764746620.213783,2.18
1764746620.2200692,2.31
1764746620.226347,2.27
1764746620.2326689,2.3
1764746620.238875,2.32
1764746620.245085,2.32
1764746620.2513468,2.33
1764746620.257698,2.17
1764746620.263826,2.29
1764746620.2700858,2.39
1764746620.276247,2.24
1764746620.2825558,2.42
1764746620.288938,2.4
1764746620.2950149,2.48
1764746620.301311,2.51
1764746620.307688,2.43
1764746620.313798,2.53
1764746620.320075,2.39
1764746620.3264298,2.32
1764746620.332526,2.48
1764746620.338756,2.4
1764746620.345042,2.35
1764746620.3513339,2.41
1764746620.3577752,2.26
1764746620.363919,2.19
1764746620.370175,2.19
1764746620.376281,2.12
1764746620.382642,2.09
1764746620.388875,1.94
1764746620.395067,1.98
1764746620.401288,2.01
1764746620.407626,1.76
1764746620.4137862,1.78
1764746620.419976,1.85
1764746620.426262,1.89
1764746620.432479,2.01
1764746620.438833,1.85
1764746620.445002,1.76
1764746620.451207,1.96
1764746620.4575,1.97
1764746620.463954,1.99
1764746620.470092,1.78
1764746620.4762208,1.68
1764746620.482471,1.92
1764746620.488836,1.88
1764746620.4949682,1.74
1764746620.5012128,1.79
1764746620.507551,1.76
1764746620.5137439,1.74
1764746620.519935,1.74
1764746620.526176,1.76
1764746620.532452,1.82
1764746620.5388448,1.78
1764746620.5448809,1.72
1764746620.5512488,1.75
1764746620.557537,1.45
1764746620.563797,1.5
1764746620.5699189,1.7
1764746620.57619,1.54
1764746620.58246,1.57
1764746620.588892,1.62
1764746620.594914,1.61
1764746620.60125,1.7
1764746620.607488,1.67
1764746620.61375,1.7
1764746620.619966,1.87
1764746620.626225,1.87
1764746620.6325,1.8
1764746620.638794,1.71
1764746620.6449332,1.74
1764746620.6512692,1.67
1764746620.657609,1.48
1764746620.663852,1.62
1764746620.670217,1.49
1764746620.6762629,1.28
1764746620.682644,1.44
1764746620.688757,1.5
1764746620.694883,1.38
1764746620.701277,1.48
1764746620.707613,1.51
1764746620.713757,1.6
1764746620.720103,1.57
1764746620.726312,1.47
1764746620.732457,1.6
1764746620.738705,1.59
1764746620.744906,1.8
1764746620.75122,2.58
1764746620.757503,3.04
1764746620.763695,2.94
1764746620.769907,2.38
1764746620.776236,1.2
1764746620.782454,1.28
1764746620.788728,1.79
1764746620.79488,1.39
1764746620.801379,1.35
1764746620.807549,1.63
1764746620.813786,1.74
1764746620.81985,1.52
1764746620.826211,1.35
1764746620.83241,1.59
1764746620.8387089,1.68
1764746620.8448482,1.56
1764746620.8512871,1.59
1764746620.857494,1.59
1764746620.863733,1.69
1764746620.869944,1.74
1764746620.87613,1.7
1764746620.882348,1.68
1764746620.888809,1.61
1764746620.8949382,1.71
1764746620.901161,1.81
1764746620.90747,1.71
1764746620.9137821,1.8
1764746620.919919,1.88
1764746620.926133,1.8
1764746620.93235,1.94
1764746620.9387672,1.96
1764746620.9448802,1.99
1764746620.951125,2.09
1764746620.95748,1.98
1764746620.9637198,1.9
1764746620.969855,1.83
1764746620.976099,1.79
1764746620.9823868,1.9
1764746620.9889731,1.8
1764746620.9948401,1.74
1764746621.001108,1.76
1764746621.0074089,1.68
1764746621.01366,1.75
1764746621.019913,1.71
1764746621.0262258,1.62
1764746621.032416,1.67
1764746621.03887,1.64
1764746621.0448499,1.69
1764746621.051143,1.76
1764746621.0574489,1.66
1764746621.0637891,1.72
1764746621.069988,1.79
1764746621.076141,1.68
1764746621.082398,1.71
1764746621.088671,1.63
1764746621.0948281,1.62
1764746621.101163,1.75
1764746621.107477,1.65
1764746621.1136792,1.62
1764746621.120089,1.64
1764746621.126158,1.54
1764746621.132378,1.56
1764746621.138626,1.52
1764746621.144827,1.55
1764746621.151189,1.66
1764746621.160906,1.54
1764746621.1787782,1.58
1764746621.219767,1.58
1764746621.231873,1.49
1764746621.232041,1.6
1764746621.2321742,1.6
1764746621.243233,1.5
1764746621.243593,1.68
1764746621.243903,1.87
1764746621.243998,1.86
1764746621.244086,1.74
1764746621.2442932,1.81
1764746621.2444181,2.06
1764746621.244537,1.91
1764746621.2447941,1.82
1764746621.251185,1.95
1764746621.263168,1.78
1764746621.2635899,1.62
1764746621.270002,1.57
1764746621.2767859,1.51
1764746621.2824059,1.56
1764746621.2895732,1.41
1764746621.29481,1.36
1764746621.301294,1.46
1764746621.307374,1.4
1764746621.313499,1.42
1764746621.31986,1.3
1764746621.3260329,1.19
1764746621.3325,1.39
1764746621.338542,1.32
1764746621.3448472,1.28
1764746621.3511481,1.54
1764746621.357378,1.89
1764746621.3635159,2.67
1764746621.3698728,2.9
1764746621.3760881,2.38
1764746621.382509,1.26
1764746621.38852,0.56
1764746621.3948202,1.02
1764746621.401037,1.35
1764746621.4072819,1.08
1764746621.413506,1.03
1764746621.4198568,1.13
1764746621.425996,1.09
1764746621.4322329,1.16
1764746621.438543,1.09
1764746621.444811,1.08
1764746621.451023,1.13
1764746621.457949,1.02
1764746621.463535,1.08
1764746621.469965,1.09
1764746621.476251,1.01
1764746621.4822788,1.11
1764746621.488571,1.1
1764746621.494773,1.08
1764746621.5012639,1.12
1764746621.507553,1.09
1764746621.5135481,1.16
1764746621.519796,1.2
1764746621.5260959,1.18
1764746621.532254,1.32
1764746621.5385659,1.3
1764746621.544839,1.33
1764746621.551018,1.41
1764746621.557411,1.33
1764746621.563445,1.39
1764746621.5697868,1.38
1764746621.575948,1.31
1764746621.58218,1.35
1764746621.5884821,1.21
1764746621.594819,1.19
1764746621.6010728,1.24
1764746621.607429,1.11
1764746621.613463,1.15
1764746621.619814,1.12
1764746621.625977,1.08
1764746621.632292,1.17
1764746621.638495,1.11
1764746621.6447182,1.09
1764746621.651148,1.22
1764746621.657472,1.17
1764746621.663496,1.23
1764746621.669785,1.24
1764746621.676075,1.16
1764746621.682333,1.26
1764746621.68848,1.21
1764746621.694777,1.24
1764746621.700906,1.3
1764746621.707414,1.15
1764746621.7134259,1.21
1764746621.7197282,1.27
1764746621.7258828,1.13
1764746621.732217,1.18
1764746621.7384782,1.19
1764746621.7447748,1.17
1764746621.7510111,1.22
1764746621.757216,1.16
1764746621.763489,1.23
1764746621.7697449,1.2
1764746621.775959,1.11
1764746621.782295,1.23
1764746621.788455,1.16
1764746621.794681,1.1
1764746621.800995,1.17
1764746621.807277,1.09
1764746621.8134139,1.2
1764746621.819745,1.19
1764746621.82592,1.15
1764746621.832202,1.34
1764746621.8385081,1.33
1764746621.84495,1.3
1764746621.851004,1.46
1764746621.85729,1.48
1764746621.863555,1.55
1764746621.869674,1.53
1764746621.875929,1.42
1764746621.882196,1.31
1764746621.8883991,1.25
1764746621.894571,1.6
1764746621.901076,1.74
1764746621.907211,1.49
1764746621.913497,1.49
1764746621.919637,1.61
1764746621.92594,1.53
1764746621.932204,1.57
1764746621.938695,1.5
1764746621.9446342,1.54
1764746621.950969,1.61
1764746621.957248,1.49
1764746621.963507,1.57
1764746621.9696388,1.58
1764746621.975851,1.66
1764746621.982309,2.44
1764746621.988433,3.04
1764746621.9946408,2.95
1764746622.000896,2.38
1764746622.007238,1.08
1764746622.013349,0.99
1764746622.019627,1.52
1764746622.025912,1.52
1764746622.032178,1.47
1764746622.0384362,1.41
1764746622.0446131,1.45
1764746622.05087,1.54
1764746622.05713,1.48
1764746622.063458,1.54
1764746622.069667,1.54
1764746622.075839,1.48
1764746622.0821152,1.55
1764746622.0884092,1.52
1764746622.094649,1.54
1764746622.100884,1.6
1764746622.107158,1.53
1764746622.11334,1.6
1764746622.119731,1.58
1764746622.125866,1.53
1764746622.132173,1.66
1764746622.138434,1.6
1764746622.1446831,1.64
1764746622.1509628,1.76
1764746622.157212,1.71
1764746622.163376,1.84
1764746622.169651,1.89
1764746622.17597,1.83
1764746622.182095,1.91
1764746622.188429,1.85
1764746622.194609,1.8
1764746622.20095,1.82
1764746622.207316,1.73
1764746622.213488,1.75
1764746622.219629,1.7
1764746622.225857,1.57
1764746622.232227,1.63
1764746622.238639,1.51
1764746622.244624,1.5
1764746622.250926,1.6
1764746622.2571058,1.46
1764746622.2633128,1.5
1764746622.2696111,1.54
1764746622.275811,1.47
1764746622.282156,1.58
1764746622.2888079,1.53
1764746622.294666,1.52
1764746622.300938,1.62
1764746622.3076868,1.52
1764746622.313403,1.52
1764746622.319581,1.56
1764746622.325826,1.56
1764746622.332227,1.56
1764746622.3387709,1.44
1764746622.3446841,1.51
1764746622.3510242,1.62
1764746622.357128,1.51
1764746622.36322,1.54
1764746622.369601,1.56
1764746622.3758552,1.48
1764746622.3820958,1.57
1764746622.388525,1.55
1764746622.394528,1.55
1764746622.4008262,1.61
1764746622.4071062,1.53
1764746622.4132962,1.58
1764746622.419607,1.61
1764746622.4258199,1.62
1764746622.4320982,1.72
1764746622.438566,1.65
1764746622.444669,1.65
1764746622.450947,1.74
1764746622.4571369,1.69
1764746622.463433,1.85
1764746622.469776,2.14
1764746622.475766,2.2
1764746622.482053,2.38
1764746622.4883819,2.31
1764746622.4946098,2.21
1764746622.5008268,2.21
1764746622.507031,2.15
1764746622.513385,2.1
1764746622.519541,1.89
1764746622.525842,1.74
1764746622.532073,1.86
1764746622.539181,1.82
1764746622.544671,1.8
1764746622.550849,1.84
1764746622.557038,1.73
1764746622.563298,1.8
1764746622.5696268,1.8
1764746622.575852,1.76
1764746622.582002,1.87
1764746622.588531,1.76
1764746622.5945659,1.72
1764746622.600815,1.85
1764746622.607106,1.97
1764746622.613315,2.58
1764746622.619675,3.15
1764746622.625752,3.1
1764746622.6320589,2.6
1764746622.638808,1.26
1764746622.645407,1.13
1764746622.6643221,1.81
1764746622.664474,1.7
1764746622.664611,1.59
1764746622.685017,1.66
1764746622.6877189,1.68
1764746622.697452,1.69
1764746622.7010932,1.62
1764746622.7255151,1.72
1764746622.728252,1.77
1764746622.72835,1.68
1764746622.728441,1.7
1764746622.72868,1.7
1764746622.728998,1.69
1764746622.732047,1.74
1764746622.738345,1.7
1764746622.751101,1.73
1764746622.751273,1.8
1764746622.757062,1.73
1764746622.7633762,1.78
1764746622.7714,1.79
1764746622.776382,1.78
1764746622.782083,1.96
1764746622.78846,1.96
1764746622.794562,2.01
1764746622.80076,2.32
1764746622.8070679,2.56
1764746622.81325,2.56
1764746622.819602,2.42
1764746622.825695,2.42
1764746622.8319511,2.56
1764746622.838624,2.35
1764746622.8444228,2.32
1764746622.850741,2.36
1764746622.8569689,2.18
1764746622.8632052,2.19
1764746622.869478,2.22
1764746622.875715,2.14
1764746622.882242,2.12
1764746622.888612,2.04
1764746622.8944352,2.01
1764746622.900665,2.11
1764746622.906954,2.06
1764746622.91319,2.1
1764746622.91952,2.09
1764746622.92575,1.99
1764746622.932011,2.13
1764746622.938466,2.09
1764746622.944461,2.07
1764746622.950799,2.1
1764746622.956971,2.02
1764746622.963157,2.08
1764746622.9694788,2.05
1764746622.975698,1.96
1764746622.981972,2.06
1764746622.988524,2.05
1764746622.994463,2.03
1764746623.000761,2.06
1764746623.006932,1.98
1764746623.013189,2.02
1764746623.0196,1.97
1764746623.025706,1.96
1764746623.031923,2.09
1764746623.038356,2.02
1764746623.044414,2.02
1764746623.05071,2.1
1764746623.056988,2.05
1764746623.0631459,2.12
1764746623.069482,2.2
1764746623.0756638,2.24
1764746623.081983,2.28
1764746623.088468,2.29
1764746623.094356,2.46
1764746623.100715,2.59
1764746623.1070411,2.43
1764746623.113226,2.46
1764746623.1194649,2.46
1764746623.1256452,2.28
1764746623.132046,2.23
1764746623.138773,2.19
1764746623.14434,2.22
1764746623.150663,2.18
1764746623.1569128,2.16
1764746623.163146,2.28
1764746623.1694689,2.2
1764746623.1756852,2.22
1764746623.181958,2.41
1764746623.188676,2.32
1764746623.194389,2.31
1764746623.200724,2.43
1764746623.2070038,2.42
1764746623.2132428,2.61
1764746623.219388,2.92
1764746623.225611,3.17
1764746623.2319412,3.18
1764746623.238183,3.17
1764746623.244452,3.17
1764746623.2507799,2.98
1764746623.256869,2.01
1764746623.263123,2.2
1764746623.2695282,2.65
1764746623.2758012,2.51
1764746623.281815,2.41
1764746623.288728,2.42
1764746623.294472,2.52
1764746623.300734,2.58
1764746623.306855,2.49
1764746623.313184,2.6
1764746623.319371,2.54
1764746623.325618,2.46
1764746623.332007,2.64
1764746623.338939,2.57
1764746623.3443918,2.57
1764746623.350615,2.65
1764746623.3569002,2.46
1764746623.363059,2.46
1764746623.36932,2.58
1764746623.375621,2.48
1764746623.3819652,2.52
1764746623.3882382,2.49
1764746623.3943071,2.55
1764746623.400747,2.62
1764746623.406846,2.57
1764746623.413161,2.7
1764746623.4194071,2.67
1764746623.425672,2.5
1764746623.431871,2.6
1764746623.438564,2.52
1764746623.444449,2.49
1764746623.4506629,2.47
1764746623.456969,2.36
1764746623.463166,2.38
1764746623.469341,2.31
1764746623.475643,2.17
1764746623.4818501,2.23
1764746623.4883368,2.11
1764746623.494308,2.11
1764746623.500593,2.14
1764746623.50689,1.99
1764746623.51306,2.02
