timestamp,ecg_value
1764746342.54069,2.21
1764746342.54679,2.11
1764746342.553459,2.22
1764746342.559384,2.35
1764746342.565682,2.23
1764746342.571914,2.41
1764746342.57809,2.29
1764746342.584396,2.17
1764746342.591896,2.32
1764746342.5979068,2.0
1764746342.611556,2.0
1764746342.617798,2.09
1764746342.618512,1.83
1764746342.640704,1.94
1764746342.6408188,1.95
1764746342.64095,1.96
1764746342.641075,2.08
1764746342.658433,1.9
1764746342.6586208,1.93
1764746342.6862998,2.03
1764746342.695544,1.9
1764746342.6986911,2.13
1764746342.699266,2.13
1764746342.699462,2.35
1764746342.699608,3.16
1764746342.700049,3.17
1764746342.703412,3.17
1764746342.709576,3.07
1764746342.715727,1.69
1764746342.7267451,1.44
1764746342.7292202,2.02
1764746342.73474,2.14
1764746342.742168,1.96
1764746342.747148,1.83
1764746342.7533,2.06
1764746342.759499,2.12
1764746342.765693,1.91
1764746342.771935,2.04
1764746342.7782242,2.03
1764746342.784382,1.99
1764746342.790687,2.19
1764746342.79692,2.02
1764746342.803233,2.05
1764746342.809535,2.17
1764746342.815565,2.03
1764746342.821913,2.12
1764746342.828089,2.12
1764746342.834286,2.18
1764746342.840628,2.28
1764746342.846856,2.14
1764746342.853193,2.24
1764746342.85936,2.26
1764746342.86565,2.06
1764746342.8721669,2.26
1764746342.87811,2.22
1764746342.884332,2.13
1764746342.890532,2.24
1764746342.896828,2.13
1764746342.903101,2.25
1764746342.909276,2.22
1764746342.9155068,2.02
1764746342.921856,2.17
1764746342.9280288,2.15
1764746342.934274,2.18
1764746342.940534,2.27
1764746342.9467058,2.1
1764746342.953123,2.19
1764746342.9592042,2.28
1764746342.965568,2.16
1764746342.972211,2.28
1764746342.978245,2.18
1764746342.984261,2.2
1764746342.990502,2.38
1764746342.996759,2.16
1764746343.003047,2.27
1764746343.009252,2.32
1764746343.015459,2.2
1764746343.022075,2.34
1764746343.02802,2.26
1764746343.034257,2.24
1764746343.04046,2.39
1764746343.0466812,2.21
1764746343.053161,2.28
1764746343.059243,2.37
1764746343.065446,2.26
1764746343.071799,2.44
1764746343.0780249,2.39
1764746343.084249,2.39
1764746343.090494,2.57
1764746343.096769,2.47
1764746343.10297,2.66
1764746343.109241,2.75
1764746343.115621,2.56
1764746343.1223218,2.67
1764746343.1280022,2.43
1764746343.134219,2.27
1764746343.140438,2.67
1764746343.146763,2.56
1764746343.153095,2.42
1764746343.1592388,2.41
1764746343.165424,2.31
1764746343.172132,2.51
1764746343.178088,2.34
1764746343.184278,2.26
1764746343.19059,2.47
1764746343.196673,2.3
1764746343.204235,2.24
1764746343.2091892,2.27
1764746343.215415,2.31
1764746343.221789,2.91
1764746343.2278569,3.16
1764746343.2342029,3.17
1764746343.240556,3.17
1764746343.246619,2.79
1764746343.253089,1.54
1764746343.259155,1.71
1764746343.265425,2.14
1764746343.271738,2.22
1764746343.277965,1.81
1764746343.284267,1.83
1764746343.290645,2.11
1764746343.296863,1.87
1764746343.303016,1.83
1764746343.309257,1.88
1764746343.315375,1.82
1764746343.3217,1.98
1764746343.327893,1.75
1764746343.334219,1.72
1764746343.340416,1.96
1764746343.346648,1.78
1764746343.352961,1.74
1764746343.359159,1.85
1764746343.365375,1.77
1764746343.37182,1.82
1764746343.3778932,1.7
1764746343.384166,1.76
1764746343.39055,1.91
1764746343.396718,1.67
1764746343.403031,1.86
1764746343.40917,2.03
1764746343.415444,1.85
1764746343.422095,1.96
1764746343.42801,1.82
1764746343.434159,1.83
1764746343.4405088,1.94
1764746343.446594,1.72
1764746343.4529111,1.78
1764746343.459118,1.83
1764746343.46545,1.66
1764746343.471787,1.71
1764746343.477948,1.62
1764746343.484184,1.65
1764746343.490446,1.78
1764746343.496667,1.51
1764746343.503019,1.6
1764746343.509148,1.65
1764746343.515436,1.56
1764746343.522291,1.71
1764746343.527806,1.75
1764746343.534131,1.78
1764746343.5403469,1.82
1764746343.546785,1.59
1764746343.55288,1.76
1764746343.559104,1.79
1764746343.565366,1.59
1764746343.571676,1.7
1764746343.5778718,1.69
1764746343.584094,1.74
1764746343.590386,1.8
1764746343.596673,1.55
1764746343.603297,1.68
1764746343.6092029,1.75
1764746343.615337,1.64
1764746343.62214,1.79
1764746343.6279502,1.76
1764746343.634273,1.79
1764746343.6404018,1.82
1764746343.6465962,1.49
1764746343.652939,1.64
1764746343.65905,1.66
1764746343.665357,1.3
1764746343.6719282,1.33
1764746343.6778612,1.27
1764746343.684073,1.19
1764746343.690347,1.22
1764746343.6967978,1.11
1764746343.702965,1.3
1764746343.709043,1.23
1764746343.715304,0.98
1764746343.722645,1.2
1764746343.727888,1.25
1764746343.7341068,1.19
1764746343.7404292,1.21
1764746343.7466612,1.17
1764746343.7534451,1.72
1764746343.75912,2.49
1764746343.765375,2.81
1764746343.771575,2.81
1764746343.777785,1.52
1764746343.784281,0.46
1764746343.790323,1.05
1764746343.796643,1.23
1764746343.803184,1.1
1764746343.809163,1.03
1764746343.815347,0.91
1764746343.822342,1.09
1764746343.827935,1.04
1764746343.834123,0.98
1764746343.840798,1.12
1764746343.8466492,0.94
1764746343.8532748,1.14
1764746343.859318,1.24
1764746343.865474,1.06
1764746343.871775,1.2
1764746343.879201,0.94
1764746343.884266,0.88
1764746343.894287,1.09
1764746343.8967822,0.88
1764746343.903687,0.95
1764746343.909328,1.01
1764746343.915457,0.83
1764746343.923023,1.05
1764746343.928024,0.96
1764746343.934287,0.85
1764746343.940481,1.04
1764746343.946789,0.88
1764746343.953106,0.94
1764746343.959347,1.01
1764746343.965405,0.88
1764746343.971603,1.07
1764746343.9780312,0.98
1764746343.984115,0.97
1764746343.990368,1.09
1764746343.9967418,0.88
1764746344.002822,0.91
1764746344.0090728,1.03
1764746344.01534,0.88
1764746344.021545,0.99
1764746344.027839,0.81
1764746344.034056,0.81
1764746344.040241,1.02
1764746344.046785,0.87
1764746344.052796,0.99
1764746344.059103,0.94
1764746344.065417,0.74
1764746344.0715342,1.05
1764746344.077782,0.87
1764746344.084147,0.77
1764746344.090417,1.05
1764746344.09668,0.77
1764746344.110485,0.88
1764746344.112541,0.91
1764746344.148463,0.59
1764746344.168947,0.9
1764746344.170638,0.88
1764746344.18171,0.8
1764746344.190743,1.05
1764746344.190989,0.75
1764746344.193836,0.87
1764746344.2038,1.05
1764746344.204928,0.97
1764746344.2052102,1.16
1764746344.205565,0.91
1764746344.205916,0.83
1764746344.206321,1.05
1764746344.208424,0.75
1764746344.208828,0.82
1764746344.209187,0.67
1764746344.21539,0.44
1764746344.22161,0.72
1764746344.231885,0.67
1764746344.234054,0.52
1764746344.242471,0.7
1764746344.246597,0.62
1764746344.252886,0.62
1764746344.2594712,0.59
1764746344.2652512,0.57
1764746344.272703,0.87
1764746344.277879,0.65
1764746344.284087,1.01
1764746344.2904088,1.99
1764746344.29669,2.03
1764746344.3029912,1.77
1764746344.308982,0.7
1764746344.315252,0.0
1764746344.321669,0.39
1764746344.32777,0.71
1764746344.334047,0.49
1764746344.340249,0.48
1764746344.346465,0.43
1764746344.352656,0.53
1764746344.359009,0.63
1764746344.365182,0.42
1764746344.371444,0.65
1764746344.377723,0.67
1764746344.383997,0.64
1764746344.390162,0.7
1764746344.396376,0.51
1764746344.402699,0.83
1764746344.408934,0.84
1764746344.4152162,0.55
1764746344.421501,0.83
1764746344.4277482,0.8
1764746344.433963,0.8
1764746344.440219,0.98
1764746344.446458,0.76
1764746344.4527092,0.86
1764746344.458891,0.9
1764746344.465159,0.7
1764746344.471434,0.79
1764746344.477667,0.77
1764746344.483938,0.96
1764746344.4902122,1.01
1764746344.496522,0.77
1764746344.50271,0.82
1764746344.5088892,0.86
1764746344.515181,0.87
1764746344.521506,1.07
1764746344.527644,0.87
1764746344.5340018,0.86
1764746344.540179,1.05
1764746344.546548,0.9
1764746344.552712,0.98
1764746344.558906,0.94
1764746344.565202,0.89
1764746344.571579,1.17
1764746344.5775669,1.02
1764746344.58396,0.94
1764746344.590239,1.1
1764746344.596417,0.92
1764746344.6027362,0.98
1764746344.608961,1.09
1764746344.615183,1.01
1764746344.621717,1.06
1764746344.62774,0.9
1764746344.634007,0.95
1764746344.640204,1.18
1764746344.6463811,0.99
1764746344.652638,1.02
1764746344.6588612,1.07
1764746344.6651468,0.97
1764746344.671435,1.27
1764746344.67761,1.24
1764746344.683935,1.14
1764746344.690176,1.35
1764746344.696426,1.31
1764746344.702642,1.38
1764746344.708927,1.31
1764746344.7151492,1.2
1764746344.721399,1.32
1764746344.727778,1.06
1764746344.734067,0.91
1764746344.740125,1.05
1764746344.7463949,0.85
1764746344.752652,0.91
1764746344.758867,1.03
1764746344.765093,0.9
1764746344.7715049,1.1
1764746344.7776902,1.0
1764746344.783851,0.98
1764746344.7901,1.09
1764746344.796439,0.96
1764746344.802672,1.02
1764746344.808819,1.09
1764746344.815111,1.42
1764746344.821373,2.44
1764746344.827635,2.64
1764746344.833911,2.28
1764746344.840136,1.47
1764746344.846377,0.6
1764746344.852581,0.99
1764746344.8588731,1.33
1764746344.865096,1.15
1764746344.8714292,1.23
1764746344.877601,1.19
1764746344.883878,1.27
1764746344.890188,1.37
1764746344.89637,1.17
1764746344.902679,1.39
1764746344.908888,1.38
1764746344.91505,1.2
1764746344.921389,1.46
1764746344.927546,1.34
1764746344.933881,1.22
1764746344.940024,1.63
1764746344.946372,1.53
1764746344.952575,1.55
1764746344.958839,1.54
1764746344.9650712,1.42
1764746344.9713411,1.72
1764746344.9775622,1.63
1764746344.983874,1.59
1764746344.9900138,1.78
1764746344.996274,1.57
1764746345.00257,1.74
1764746345.0087612,1.79
1764746345.015077,1.58
1764746345.021516,1.81
1764746345.027633,1.65
1764746345.033897,1.65
1764746345.040082,1.88
1764746345.0463328,1.68
1764746345.052497,1.81
1764746345.058725,1.83
1764746345.0650802,1.6
1764746345.071321,1.93
1764746345.077573,1.9
1764746345.084068,1.79
1764746345.090205,1.9
1764746345.096268,1.74
1764746345.102539,2.0
1764746345.108886,2.02
1764746345.115121,1.77
1764746345.121519,1.97
1764746345.127528,1.9
1764746345.133899,1.86
1764746345.140046,2.05
1764746345.1463249,1.83
1764746345.152577,1.91
1764746345.158731,1.96
1764746345.165023,1.78
1764746345.171675,2.02
1764746345.177521,1.88
1764746345.18381,1.88
1764746345.1900852,2.08
1764746345.19622,1.87
1764746345.202581,2.08
1764746345.208781,2.21
1764746345.215034,1.97
1764746345.2214038,2.23
1764746345.22752,2.28
1764746345.233883,2.22
1764746345.2399738,2.3
1764746345.246339,2.14
1764746345.252485,2.2
1764746345.258802,2.05
1764746345.264988,1.79
1764746345.271349,2.02
1764746345.2774432,1.95
1764746345.283838,1.88
1764746345.289953,1.99
1764746345.296232,1.89
1764746345.302525,2.02
1764746345.3087711,2.02
1764746345.3150332,1.86
1764746345.321434,2.01
1764746345.32752,1.95
1764746345.3337758,1.92
1764746345.340071,2.18
1764746345.3462012,2.38
1764746345.352528,3.16
1764746345.358737,3.17
1764746345.364998,3.16
1764746345.371307,2.79
1764746345.377576,1.42
1764746345.383769,1.5
1764746345.3899882,2.16
1764746345.396196,2.02
1764746345.402443,1.93
1764746345.408685,2.0
1764746345.4149692,1.91
1764746345.421315,2.05
1764746345.427617,1.99
1764746345.4338078,1.96
1764746345.4399738,2.04
1764746345.446262,1.94
1764746345.452547,2.1
1764746345.4587252,2.08
1764746345.465008,1.92
1764746345.471317,2.12
1764746345.4775412,2.04
1764746345.483779,2.02
1764746345.489995,2.16
1764746345.496142,2.02
1764746345.502532,2.09
1764746345.508684,2.14
1764746345.514976,1.98
1764746345.5212522,2.1
1764746345.527421,2.1
1764746345.533694,2.16
1764746345.539952,2.2
1764746345.546197,2.07
1764746345.552415,2.15
1764746345.558649,2.14
1764746345.565006,2.02
1764746345.5714402,2.18
1764746345.577416,2.04
1764746345.583807,1.94
1764746345.5900328,2.14
1764746345.596155,2.05
1764746345.602531,2.08
1764746345.608639,2.05
1764746345.614947,1.91
1764746345.6213062,2.03
1764746345.636632,2.05
1764746345.647398,1.97
1764746345.648928,2.03
1764746345.675999,1.93
1764746345.709456,2.04
1764746345.717497,2.02
1764746345.7262652,1.86
1764746345.728088,1.97
1764746345.728658,1.86
1764746345.729112,1.88
1764746345.7294238,2.05
1764746345.729739,1.84
1764746345.730034,1.93
1764746345.730325,1.99
1764746345.7306209,1.8
1764746345.730913,1.95
1764746345.731222,1.92
1764746345.73395,1.93
1764746345.7399318,2.05
1764746345.74622,1.91
1764746345.756659,2.1
1764746345.758789,2.23
1764746345.765002,2.07
1764746345.772331,2.15
1764746345.7774668,2.06
1764746345.7837062,2.04
1764746345.790259,2.0
1764746345.796242,1.77
1764746345.802564,1.92
1764746345.808743,1.89
1764746345.814959,1.67
1764746345.8213491,1.9
1764746345.827497,1.84
1764746345.833686,1.77
1764746345.839902,1.94
1764746345.846147,1.84
1764746345.852428,1.92
1764746345.85858,1.95
1764746345.864865,1.83
1764746345.871237,2.13
1764746345.877406,2.38
1764746345.883738,3.08
1764746345.889982,3.17
1764746345.896179,3.16
1764746345.902424,2.86
1764746345.908594,1.5
1764746345.914954,1.53
1764746345.921165,2.2
1764746345.927374,2.02
1764746345.933664,1.85
1764746345.9398882,2.08
1764746345.946197,1.93
1764746345.952383,1.96
1764746345.958605,2.02
1764746345.964937,1.95
1764746345.9711192,2.12
1764746345.977366,2.01
1764746345.9837031,1.97
1764746345.989886,2.11
1764746345.996075,1.96
1764746346.002346,2.1
1764746346.0086432,2.14
1764746346.014956,1.99
1764746346.021096,2.21
1764746346.027381,2.16
1764746346.0336509,2.09
1764746346.039851,2.27
1764746346.04607,2.16
1764746346.052366,2.27
1764746346.058557,2.28
1764746346.06489,2.14
1764746346.071124,2.27
1764746346.077309,2.16
1764746346.0835462,2.17
1764746346.08983,2.31
1764746346.096069,2.04
1764746346.1023328,2.1
1764746346.108458,2.15
1764746346.114912,2.01
1764746346.121182,2.07
1764746346.1273868,1.96
1764746346.133736,1.96
1764746346.139897,2.05
1764746346.146089,1.85
1764746346.1523242,1.96
1764746346.158497,1.99
1764746346.164907,1.78
1764746346.171142,1.96
1764746346.177301,1.91
1764746346.183649,1.87
1764746346.189965,1.88
1764746346.195999,1.67
1764746346.202304,1.85
1764746346.208443,1.9
1764746346.214881,1.65
1764746346.221191,1.79
1764746346.227336,1.71
1764746346.233553,1.62
1764746346.239754,1.77
1764746346.2460318,1.63
1764746346.2522829,1.66
1764746346.258513,1.71
1764746346.26485,1.68
1764746346.2710888,1.81
1764746346.277346,1.73
1764746346.283701,1.8
1764746346.289739,1.93
1764746346.296018,1.76
1764746346.3022752,1.77
1764746346.308476,1.78
1764746346.314764,1.6
1764746346.321111,1.56
1764746346.327305,1.42
1764746346.333591,1.3
1764746346.3397188,1.35
1764746346.346088,1.23
1764746346.352295,1.33
1764746346.358457,1.3
1764746346.364821,1.13
1764746346.371114,1.3
1764746346.3772411,1.23
1764746346.383531,1.12
1764746346.389745,1.25
1764746346.395991,1.18
1764746346.402271,1.37
1764746346.4084768,1.84
1764746346.414772,2.44
1764746346.42108,2.74
1764746346.427292,2.1
1764746346.433488,0.98
1764746346.439752,0.88
1764746346.446056,1.21
1764746346.452328,1.37
1764746346.458428,1.2
1764746346.464784,1.05
1764746346.471058,1.24
1764746346.477248,1.03
1764746346.483449,1.09
1764746346.48972,1.42
1764746346.495987,1.17
1764746346.5022552,1.14
1764746346.508402,1.23
1764746346.514758,1.17
1764746346.521131,1.34
1764746346.527273,1.25
1764746346.5335622,1.25
1764746346.539788,1.4
1764746346.545926,1.32
1764746346.552258,1.41
1764746346.558402,1.52
1764746346.564786,1.46
1764746346.571017,1.6
1764746346.577279,1.57
1764746346.583679,1.55
1764746346.589707,1.74
1764746346.595969,1.62
1764746346.602244,1.67
1764746346.6083798,1.74
1764746346.614756,1.6
1764746346.621166,1.67
1764746346.627348,1.59
1764746346.633493,1.61
1764746346.639714,1.72
1764746346.645925,1.56
1764746346.652277,1.59
1764746346.6583848,1.65
1764746346.664691,1.51
1764746346.671107,1.62
1764746346.6771982,1.62
1764746346.6835651,1.66
1764746346.689754,1.7
1764746346.696043,1.59
1764746346.702303,1.74
1764746346.708362,1.71
1764746346.714746,1.55
1764746346.720916,1.74
1764746346.727189,1.68
1764746346.733533,1.55
1764746346.739619,1.63
1764746346.745877,1.52
1764746346.752231,1.63
1764746346.758366,1.65
1764746346.7646878,1.44
1764746346.770935,1.58
1764746346.777216,1.63
1764746346.783469,1.61
1764746346.789636,1.74
1764746346.7959192,1.6
1764746346.802263,1.67
1764746346.80837,1.76
1764746346.814702,1.74
1764746346.820884,1.89
1764746346.8271391,1.69
1764746346.833534,1.67
1764746346.83969,1.77
1764746346.845904,1.44
1764746346.8522391,1.43
1764746346.85837,1.47
1764746346.8647292,1.22
1764746346.871163,1.29
1764746346.877174,1.29
1764746346.883476,1.25
1764746346.889764,1.21
1764746346.896014,1.23
1764746346.902794,1.35
1764746346.9083252,1.15
1764746346.914739,1.11
1764746346.920956,1.35
1764746346.92717,1.19
1764746346.933464,1.56
1764746346.939608,2.67
1764746346.9459689,2.75
1764746346.9524858,2.39
1764746346.958306,1.28
1764746346.964662,0.46
1764746346.97094,1.1
1764746346.977109,1.17
1764746346.983394,0.91
1764746346.989627,1.01
1764746346.99595,0.91
1764746347.0021398,1.05
1764746347.0083258,1.05
1764746347.014625,0.82
1764746347.0209038,1.1
1764746347.027115,0.96
1764746347.03342,0.84
1764746347.039603,1.05
1764746347.045917,1.0
1764746347.052237,0.99
1764746347.058514,1.06
1764746347.064655,1.1
1764746347.070944,1.27
1764746347.077134,1.0
1764746347.083372,1.12
1764746347.089569,1.37
1764746347.095932,1.02
1764746347.10277,1.12
1764746347.108441,1.26
1764746347.114659,1.08
1764746347.120876,1.2
1764746347.127184,1.03
1764746347.1333492,1.06
1764746347.1603122,1.3
1764746347.170686,1.06
1764746347.1709042,0.99
1764746347.1710742,1.11
1764746347.174567,1.05
1764746347.174762,1.21
1764746347.1973062,1.04
1764746347.197512,1.04
1764746347.197633,1.3
1764746347.197744,1.06
1764746347.2249112,1.1
1764746347.237579,1.11
1764746347.238066,1.04
1764746347.239071,1.28
1764746347.239268,1.1
1764746347.239512,1.02
1764746347.2399309,1.18
1764746347.246304,1.01
1764746347.2524412,1.17
1764746347.260948,1.14
1764746347.2703202,0.96
1764746347.2710662,1.24
1764746347.277243,1.1
1764746347.283393,1.09
1764746347.2897248,1.17
1764746347.295998,1.06
1764746347.3021991,1.2
1764746347.3084211,1.24
1764746347.314655,1.11
1764746347.3208928,1.26
1764746347.3273568,1.19
1764746347.333374,1.37
1764746347.3397188,1.55
1764746347.345878,1.25
1764746347.3521569,1.37
1764746347.35834,1.31
1764746347.364682,0.86
1764746347.370837,1.1
1764746347.377105,1.19
1764746347.383368,1.07
1764746347.3896909,1.03
1764746347.395831,0.92
1764746347.402585,1.12
1764746347.408245,1.08
1764746347.414472,0.9
1764746347.420823,1.12
1764746347.4270232,1.13
1764746347.433345,1.03
1764746347.439468,1.04
1764746347.446056,0.97
1764746347.4523158,1.51
1764746347.458223,2.27
1764746347.46459,2.47
1764746347.4709032,2.48
1764746347.477306,1.53
1764746347.483264,0.51
1764746347.489558,0.81
1764746347.495906,1.07
1764746347.502213,1.22
1764746347.508267,1.11
1764746347.514582,1.0
1764746347.520949,1.19
1764746347.527261,1.06
1764746347.533394,1.13
1764746347.5396328,1.24
1764746347.545919,1.0
1764746347.552107,1.15
1764746347.5582368,1.1
1764746347.5645912,1.02
1764746347.5708869,1.41
1764746347.577118,1.22
1764746347.5832908,1.1
1764746347.5896351,1.35
1764746347.596071,1.2
1764746347.602319,1.35
1764746347.608288,1.45
1764746347.614786,1.28
1764746347.620914,1.34
1764746347.627131,1.39
1764746347.633396,1.43
1764746347.6395872,1.51
1764746347.6458938,1.32
1764746347.652361,1.46
1764746347.658306,1.49
1764746347.664541,1.24
1764746347.6709352,1.6
1764746347.6771011,1.54
1764746347.68335,1.45
1764746347.689554,1.57
1764746347.695879,1.41
1764746347.702113,1.52
1764746347.7082229,1.55
1764746347.7145522,1.43
1764746347.720872,1.65
1764746347.727147,1.52
1764746347.733288,1.51
1764746347.739586,1.64
1764746347.745728,1.52
1764746347.7521012,1.68
1764746347.758323,1.71
1764746347.7645109,1.5
1764746347.770824,1.81
1764746347.777028,1.8
1764746347.7832131,1.7
1764746347.78953,1.79
1764746347.7958322,1.59
1764746347.802076,1.68
1764746347.808219,1.75
1764746347.8145669,1.65
1764746347.820745,1.89
1764746347.826978,1.83
1764746347.8332748,1.82
1764746347.839533,1.91
1764746347.845675,1.81
1764746347.852383,2.15
1764746347.858264,2.17
1764746347.8644228,1.87
1764746347.8707268,2.1
1764746347.876892,1.95
1764746347.883222,1.73
1764746347.889469,1.83
1764746347.89566,1.65
1764746347.902278,1.75
1764746347.90831,1.76
1764746347.914668,1.64
1764746347.920766,1.86
1764746347.926988,1.74
1764746347.933331,1.69
1764746347.9395268,1.86
1764746347.945778,1.75
1764746347.952268,1.86
1764746347.958236,1.86
1764746347.9644978,1.77
1764746347.970748,2.35
1764746347.977294,3.08
1764746347.983312,3.16
1764746347.989502,3.15
1764746347.995757,2.25
1764746348.002182,1.2
1764746348.008162,1.54
1764746348.0144691,1.82
1764746348.020999,1.88
1764746348.027052,1.63
1764746348.0332851,1.69
1764746348.039525,1.91
1764746348.045713,1.74
1764746348.0524611,1.83
1764746348.0582242,1.85
1764746348.064587,1.74
1764746348.0708532,1.91
1764746348.0769129,1.81
1764746348.083306,1.81
1764746348.089459,1.92
1764746348.095763,1.74
1764746348.1020029,1.86
1764746348.108277,1.96
1764746348.114434,1.83
1764746348.120699,1.95
1764746348.126856,1.83
1764746348.133292,1.84
1764746348.1394298,2.08
1764746348.145657,1.93
1764746348.15227,1.99
1764746348.158271,1.95
1764746348.164372,1.88
1764746348.1706948,2.04
1764746348.176991,1.95
1764746348.183236,1.88
1764746348.18936,1.98
1764746348.195574,1.85
1764746348.202066,1.95
1764746348.208249,1.98
1764746348.214332,1.82
1764746348.2206771,1.93
1764746348.226841,1.9
1764746348.233161,1.86
1764746348.239425,1.93
1764746348.245603,1.84
1764746348.252174,1.91
1764746348.258079,1.95
1764746348.264375,1.85
1764746348.270708,1.96
1764746348.276812,1.91
1764746348.283128,1.9
1764746348.289377,2.01
1764746348.295572,1.85
1764746348.302003,1.9
1764746348.308138,1.97
1764746348.314314,1.86
1764746348.3205729,1.95
1764746348.3268008,1.84
1764746348.33311,1.81
1764746348.3393228,1.95
1764746348.345658,1.83
1764746348.352222,1.87
1764746348.3581812,1.99
1764746348.364324,2.02
1764746348.370709,2.16
1764746348.376825,2.05
1764746348.383121,2.03
1764746348.389289,2.19
1764746348.39569,1.91
1764746348.402076,1.81
1764746348.408142,1.82
1764746348.414324,1.76
1764746348.420639,1.82
1764746348.426802,1.71
1764746348.433196,1.67
1764746348.4393349,1.77
1764746348.445559,1.62
1764746348.45204,1.74
1764746348.4581351,1.75
1764746348.464289,1.63
1764746348.470627,1.7
1764746348.476822,1.66
1764746348.483188,1.85
1764746348.489286,2.71
1764746348.4955451,3.15
1764746348.501863,3.15
1764746348.508167,2.79
1764746348.514426,1.38
1764746348.520703,1.25
1764746348.526928,1.75
1764746348.533102,1.74
1764746348.5394151,1.7
1764746348.545643,1.58
1764746348.5519092,1.7
1764746348.558092,1.73
1764746348.564343,1.62
1764746348.5706189,1.74
1764746348.576828,1.77
1764746348.5831108,2.03
1764746348.58938,2.18
1764746348.595596,2.0
1764746348.6019788,2.08
1764746348.608073,2.14
1764746348.614283,2.03
1764746348.620576,2.17
1764746348.6268642,2.12
1764746348.633111,2.1
1764746348.655804,2.25
1764746348.657892,2.07
1764746348.6612868,2.2
1764746348.691467,2.32
1764746348.696285,2.12
1764746348.696428,2.28
1764746348.696528,2.28
1764746348.696625,2.2
1764746348.696728,2.28
1764746348.6968288,2.15
1764746348.707198,2.2
1764746348.708282,2.22
1764746348.7275689,2.14
1764746348.7313569,2.31
1764746348.731703,2.15
1764746348.736969,2.08
1764746348.740907,2.19
1764746348.745624,2.07
1764746348.7800992,2.16
1764746348.780481,2.19
1764746348.781117,2.05
1764746348.781427,2.09
1764746348.782281,2.08
1764746348.783063,2.14
1764746348.789284,2.16
1764746348.7955992,1.94
1764746348.8020952,2.07
1764746348.808067,2.1
1764746348.814252,1.9
1764746348.820673,2.02
1764746348.826779,2.0
1764746348.8332102,1.99
1764746348.839315,2.05
1764746348.845669,1.91
1764746348.8519418,2.05
1764746348.858092,2.09
1764746348.864299,1.99
1764746348.8706691,2.15
1764746348.876789,2.05
1764746348.883049,2.14
1764746348.889365,2.28
1764746348.895595,2.04
1764746348.9019551,2.09
1764746348.908143,2.07
1764746348.914626,1.76
1764746348.9204538,1.75
1764746348.926824,1.69
1764746348.9330812,1.67
1764746348.9392982,1.66
1764746348.945494,1.49
1764746348.951832,1.6
1764746348.9580538,1.54
1764746348.9643352,1.45
1764746348.970547,1.64
1764746348.976842,1.46
1764746348.98311,1.38
1764746348.989295,1.56
1764746348.995604,1.48
1764746349.002014,1.82
1764746349.008031,2.54
1764746349.014219,2.97
1764746349.020496,2.92
1764746349.0267808,1.85
1764746349.033062,0.84
1764746349.039213,1.23
1764746349.0454369,1.47
1764746349.051799,1.38
1764746349.058044,1.25
1764746349.064235,1.19
1764746349.070546,1.33
1764746349.0768158,1.23
1764746349.0829492,1.23
1764746349.089119,1.36
1764746349.095426,1.21
1764746349.101821,1.27
1764746349.108057,1.29
1764746349.114141,1.2
1764746349.120401,1.37
1764746349.126797,1.21
1764746349.1329489,1.28
1764746349.139155,1.42
1764746349.145421,1.27
1764746349.151774,1.41
1764746349.1580548,1.41
1764746349.1641889,1.3
1764746349.170391,1.54
1764746349.176865,1.44
1764746349.182955,1.45
1764746349.189152,1.61
1764746349.195387,1.46
1764746349.201888,1.53
1764746349.2079208,1.54
1764746349.214159,1.4
1764746349.2203672,1.52
1764746349.22669,1.37
1764746349.2329202,1.35
1764746349.2391412,1.49
1764746349.245445,1.28
1764746349.2517362,1.3
1764746349.2579,1.33
1764746349.2641978,1.2
1764746349.270371,1.31
1764746349.276729,1.16
1764746349.282898,1.17
1764746349.289113,1.34
1764746349.295404,1.15
1764746349.3016791,1.16
1764746349.308007,1.11
1764746349.3140962,1.08
1764746349.320361,1.29
1764746349.3265731,1.11
1764746349.332884,0.98
1764746349.339082,1.18
1764746349.345385,1.09
1764746349.3517709,1.1
1764746349.357885,1.14
1764746349.364098,1.06
1764746349.370366,1.16
1764746349.376641,1.21
1764746349.382933,1.26
1764746349.389108,1.35
1764746349.395481,1.24
1764746349.401827,1.48
1764746349.4079082,1.51
1764746349.4141262,1.3
1764746349.420326,1.45
1764746349.4266508,1.35
1764746349.432956,1.1
1764746349.4390988,1.08
1764746349.445338,1.04
1764746349.451623,1.14
1764746349.45794,1.04
1764746349.464128,0.99
1764746349.4703429,1.15
1764746349.476658,0.99
1764746349.482961,0.9
1764746349.489196,1.09
1764746349.495404,1.02
1764746349.501665,1.0
1764746349.5079942,0.94
1764746349.514147,0.84
1764746349.520305,1.41
1764746349.5266712,2.19
1764746349.5331142,2.41
1764746349.539106,2.26
1764746349.545392,1.0
1764746349.5522828,0.28
1764746349.558038,0.67
1764746349.564111,1.05
1764746349.570455,0.97
1764746349.576726,0.73
1764746349.583308,0.93
1764746349.589261,1.09
1764746349.595489,0.77
1764746349.6019042,0.86
1764746349.6079512,0.96
1764746349.61418,0.88
1764746349.620451,1.08
1764746349.626656,0.93
1764746349.632994,0.89
1764746349.639126,1.04
1764746349.645584,0.87
1764746349.652035,1.05
1764746349.65796,1.08
1764746349.664215,0.86
1764746349.670518,1.08
1764746349.676658,1.04
1764746349.683468,0.98
1764746349.689217,1.21
1764746349.695891,1.01
1764746349.701576,1.08
1764746349.707898,1.14
1764746349.714098,0.99
1764746349.720294,1.15
1764746349.726549,1.08
1764746349.732898,0.98
1764746349.739066,1.15
1764746349.7453592,1.05
1764746349.7516448,1.21
1764746349.757893,1.23
1764746349.764106,1.07
1764746349.77037,1.29
1764746349.777958,1.15
1764746349.7829351,1.19
1764746349.7891068,1.37
1764746349.795389,1.11
1764746349.80153,1.2
1764746349.808174,1.3
1764746349.814502,1.14
1764746349.8203268,1.3
1764746349.826525,1.17
1764746349.832822,1.12
1764746349.839124,1.35
1764746349.845321,1.2
1764746349.851601,1.33
1764746349.857791,1.32
1764746349.8640058,1.12
1764746349.870257,1.31
1764746349.876601,1.36
1764746349.88273,1.39
1764746349.8890529,1.49
1764746349.895276,1.33
1764746349.9014988,1.53
1764746349.907786,1.7
1764746349.914013,1.5
1764746349.922229,1.62
1764746349.939619,1.57
1764746349.950779,1.33
1764746349.951007,1.31
1764746349.9877682,1.24
1764746349.9908009,1.34
1764746349.991032,1.28
1764746349.9912262,1.08
1764746350.01237,1.32
1764746350.014288,1.29
1764746350.014548,1.23
1764746350.0147688,1.39
1764746350.015255,1.2
1764746350.01541,1.29
1764746350.016746,1.3
1764746350.017005,1.22
1764746350.0203788,1.45
1764746350.026537,1.87
1764746350.032773,2.66
1764746350.0395122,3.03
1764746350.0454552,2.26
1764746350.0515468,1.15
1764746350.057812,0.91
1764746350.0641348,1.14
1764746350.070281,1.23
1764746350.0766652,1.04
1764746350.082807,1.08
1764746350.089043,1.21
1764746350.095673,1.03
1764746350.101752,1.17
1764746350.107755,1.26
1764746350.113984,1.04
1764746350.1204228,1.22
1764746350.1265962,1.21
1764746350.1329348,1.11
1764746350.13914,1.26
1764746350.1451771,1.25
1764746350.151517,1.28
1764746350.157774,1.27
1764746350.1639922,1.22
1764746350.170254,1.26
1764746350.176527,1.27
1764746350.182786,1.31
1764746350.188992,1.38
1764746350.195167,1.27
1764746350.201486,1.35
1764746350.207746,1.44
1764746350.213928,1.29
1764746350.2201731,1.43
1764746350.226478,1.39
1764746350.232766,1.31
1764746350.238876,1.44
1764746350.245183,1.36
1764746350.251434,1.45
1764746350.2576342,1.41
1764746350.263967,1.26
1764746350.270119,1.46
1764746350.27648,1.44
1764746350.282877,1.31
1764746350.288866,1.42
1764746350.295228,1.21
1764746350.301434,1.4
1764746350.3076942,1.62
1764746350.31392,1.47
1764746350.3202078,1.45
1764746350.3264298,1.36
1764746350.332788,1.49
1764746350.338917,1.7
1764746350.345222,1.53
1764746350.351428,1.51
1764746350.357669,1.55
1764746350.363925,1.48
1764746350.370324,1.57
1764746350.376513,1.45
1764746350.382829,1.47
1764746350.388958,1.72
1764746350.395278,1.59
1764746350.40158,1.63
1764746350.407721,1.75
1764746350.4143949,1.76
1764746350.420319,1.93
1764746350.4264371,1.78
1764746350.4327722,1.88
1764746350.438846,1.99
1764746350.445267,1.61
1764746350.45152,1.63
1764746350.45773,1.7
1764746350.463996,1.51
1764746350.470352,1.61
1764746350.4763892,1.58
1764746350.48277,1.6
1764746350.488876,1.73
1764746350.495272,1.62
1764746350.5014222,1.71
1764746350.507661,1.71
1764746350.513948,1.57
1764746350.5203252,1.75
1764746350.5264452,1.72
1764746350.532724,1.99
1764746350.538812,2.87
1764746350.545155,3.14
1764746350.551508,3.12
1764746350.5577118,2.4
1764746350.563798,1.21
1764746350.570157,1.54
1764746350.576371,1.81
1764746350.583943,1.7
1764746350.5888572,1.79
1764746350.595285,1.68
1764746350.601613,1.74
1764746350.607724,1.77
1764746350.613942,1.67
1764746350.620203,1.85
1764746350.626432,1.75
1764746350.632732,1.76
1764746350.638783,1.96
1764746350.645209,1.74
1764746350.651756,1.87
1764746350.657695,1.99
1764746350.663867,1.9
1764746350.670377,2.05
1764746350.6764648,1.92
1764746350.682694,1.93
1764746350.689095,2.09
1764746350.69514,1.85
1764746350.701419,1.99
1764746350.707652,2.15
1764746350.71406,2.01
1764746350.7202969,2.14
1764746350.726445,2.05
1764746350.732707,2.04
1764746350.738881,2.16
1764746350.745236,1.96
1764746350.751422,1.96
1764746350.7577112,2.03
1764746350.763942,1.97
1764746350.770124,2.12
1764746350.776335,1.98
1764746350.7828228,1.87
1764746350.788745,1.97
1764746350.795131,1.88
1764746350.8013408,1.98
1764746350.807659,2.03
1764746350.8139231,1.88
1764746350.820201,1.99
1764746350.82638,1.91
1764746350.832673,1.87
1764746350.838778,2.06
1764746350.845205,1.88
1764746350.851557,1.94
1764746350.857545,2.03
1764746350.863969,1.92
1764746350.870304,2.03
1764746350.876304,1.97
1764746350.882672,1.92
1764746350.888757,1.99
1764746350.895045,1.91
1764746350.901397,2.08
1764746350.907584,2.09
1764746350.913769,1.84
1764746350.920152,2.05
1764746350.9263449,2.25
1764746350.932742,2.14
1764746350.938771,2.06
1764746350.9450371,1.96
1764746350.951381,2.04
1764746350.95747,1.92
1764746350.963757,1.66
1764746350.970029,1.78
1764746350.976314,1.71
1764746350.9828029,1.6
1764746350.988841,1.74
1764746350.995137,1.66
1764746351.001316,1.68
1764746351.007745,1.67
1764746351.0138528,1.57
1764746351.02011,1.73
1764746351.026355,1.66
1764746351.032597,1.58
1764746351.038771,1.79
1764746351.045059,2.19
1764746351.051311,3.08
1764746351.057492,3.16
1764746351.063869,3.02
1764746351.0700212,1.82
1764746351.0763168,1.01
1764746351.082647,1.58
1764746351.088834,1.89
1764746351.095139,1.52
1764746351.101281,1.52
1764746351.107512,1.65
1764746351.113825,1.57
1764746351.119942,1.69
1764746351.126268,1.62
1764746351.132454,1.57
1764746351.138706,1.73
1764746351.145048,1.58
1764746351.1512508,1.61
1764746351.157546,1.62
1764746351.1637309,1.58
1764746351.169958,1.76
1764746351.176255,1.64
1764746351.182545,1.61
1764746351.188749,1.75
1764746351.19507,1.65
1764746351.201246,1.68
1764746351.207503,1.74
1764746351.213717,1.59
1764746351.220033,1.75
1764746351.2262132,1.7
1764746351.2325602,1.72
1764746351.2387,1.86
1764746351.245019,1.66
1764746351.25123,1.67
1764746351.25743,1.72
1764746351.263714,1.6
1764746351.270002,1.71
1764746351.276185,1.68
1764746351.282665,1.62
1764746351.288702,1.77
1764746351.295114,1.66
1764746351.3011851,1.7
1764746351.307483,1.71
1764746351.313726,1.6
1764746351.31997,1.77
1764746351.326196,1.69
1764746351.332523,1.63
1764746351.338738,1.78
1764746351.345011,1.65
1764746351.351151,1.7
1764746351.357445,1.77
1764746351.363703,1.65
1764746351.3699992,1.72
1764746351.37627,1.66
1764746351.382603,1.64
1764746351.38867,1.8
1764746351.39505,1.65
1764746351.4013572,1.66
1764746351.407528,1.73
1764746351.413867,1.61
1764746351.420054,1.76
1764746351.426247,1.74
1764746351.432569,1.71
1764746351.438657,1.88
1764746351.44502,1.87
1764746351.451322,1.94
1764746351.457473,1.92
1764746351.463866,1.77
1764746351.470161,1.84
1764746351.476227,1.6
1764746351.482669,1.48
1764746351.488657,1.66
1764746351.494998,1.47
1764746351.501274,1.45
1764746351.507502,1.56
1764746351.513688,1.42
1764746351.519922,1.51
1764746351.52631,1.49
1764746351.5325382,1.47
1764746351.538599,1.54
1764746351.544922,1.38
1764746351.55133,1.44
1764746351.557442,1.62
1764746351.563984,2.03
1764746351.570085,2.96
1764746351.576187,3.03
1764746351.582487,2.42
1764746351.58867,1.33
1764746351.594978,0.89
1764746351.601334,1.44
1764746351.607456,1.58
1764746351.613729,1.28
1764746351.6198862,1.39
1764746351.626378,1.38
1764746351.632473,1.3
1764746351.63862,1.48
1764746351.644929,1.36
1764746351.6515598,1.36
1764746351.6575282,1.45
1764746351.663637,1.37
1764746351.669954,1.48
1764746351.676267,1.44
1764746351.682465,1.4
1764746351.688606,1.51
1764746351.695022,1.44
1764746351.701188,1.53
1764746351.707412,1.53
1764746351.713961,1.41
1764746351.7201889,1.61
1764746351.7261498,1.55
1764746351.732587,1.46
1764746351.738622,1.64
1764746351.744975,1.54
1764746351.751272,1.55
1764746351.7574248,1.66
1764746351.763682,1.57
1764746351.770092,1.65
1764746351.776139,1.6
1764746351.782492,1.52
1764746351.788616,1.66
1764746351.794919,1.51
1764746351.8012009,1.61
1764746351.807572,1.66
1764746351.8136609,1.5
1764746351.819871,1.63
1764746351.8261309,1.63
1764746351.8324878,1.56
1764746351.8388531,1.63
1764746351.8500931,1.52
1764746351.851167,1.65
1764746351.8579452,1.69
1764746351.8756769,1.48
1764746351.875904,1.67
1764746351.876994,1.6
1764746351.885683,1.49
1764746351.888708,1.63
1764746351.895267,1.56
1764746351.901574,1.57
1764746351.907349,1.63
1764746351.91375,1.52
1764746351.9198358,1.63
1764746351.926165,1.6
1764746351.932356,1.61
1764746351.938572,1.79
1764746351.944864,1.66
1764746351.951284,1.67
1764746351.9575849,1.79
1764746351.9636202,1.84
1764746351.971959,1.91
1764746351.976266,1.71
1764746351.983069,1.72
1764746351.988576,1.87
1764746351.994983,1.54
1764746352.001604,1.43
1764746352.007346,1.48
1764746352.013706,1.47
1764746352.019922,1.51
1764746352.026249,1.43
1764746352.032417,1.46
1764746352.0386271,1.61
1764746352.044965,1.43
1764746352.051243,1.5
1764746352.057309,1.55
1764746352.0635982,1.37
1764746352.069877,1.49
1764746352.076051,1.53
1764746352.082368,1.99
1764746352.088534,2.95
1764746352.094851,2.99
1764746352.101003,2.68
1764746352.107292,1.59
1764746352.1135402,0.88
1764746352.119772,1.41
1764746352.126048,1.54
1764746352.1323268,1.39
1764746352.1386292,1.5
1764746352.144806,1.38
1764746352.151029,1.38
1764746352.157321,1.41
1764746352.163571,1.3
1764746352.169719,1.45
1764746352.176099,1.42
1764746352.1824698,1.37
1764746352.188554,1.42
1764746352.194835,1.3
1764746352.201011,1.53
1764746352.2073212,1.62
1764746352.213592,1.38
1764746352.219872,1.54
1764746352.226093,1.6
1764746352.232316,1.5
1764746352.238595,1.62
1764746352.24483,1.47
1764746352.251199,1.57
1764746352.257283,1.65
1764746352.2637188,1.5
1764746352.26988,1.63
1764746352.276027,1.6
1764746352.282337,1.54
1764746352.288625,1.71
1764746352.294744,1.52
1764746352.301037,1.48
1764746352.307227,1.64
1764746352.313622,1.53
1764746352.319777,1.68
1764746352.326139,1.53
1764746352.332483,1.47
1764746352.338578,1.64
1764746352.344734,1.53
1764746352.351109,1.49
1764746352.35726,1.49
1764746352.36359,1.35
1764746352.369865,1.56
1764746352.376016,1.46
1764746352.382318,1.4
1764746352.3886132,1.61
1764746352.394819,1.48
1764746352.401001,1.62
1764746352.40721,1.66
1764746352.4136288,1.47
1764746352.4197571,1.65
1764746352.4259431,1.58
1764746352.432365,1.48
1764746352.438647,1.64
1764746352.44477,1.47
1764746352.451076,1.55
1764746352.45725,1.6
1764746352.46506,1.41
1764746352.469748,1.7
1764746352.475984,1.71
1764746352.4822268,1.39
1764746352.488535,1.69
1764746352.4946618,1.79
1764746352.500993,1.65
1764746352.507296,1.46
1764746352.513612,1.27
1764746352.519726,1.56
1764746352.5259671,1.38
1764746352.532257,1.28
1764746352.53873,1.48
1764746352.544752,1.29
1764746352.551009,1.37
1764746352.5572789,1.44
1764746352.563531,1.24
1764746352.569762,1.43
1764746352.5759208,1.38
1764746352.582268,1.27
1764746352.58861,1.51
1764746352.594723,1.74
1764746352.601035,2.63
1764746352.607146,3.13
1764746352.613536,2.7
1764746352.6196868,1.79
1764746352.626079,1.07
1764746352.63225,1.25
1764746352.638617,1.61
1764746352.64477,1.39
1764746352.6510808,1.4
1764746352.657175,1.48
1764746352.663481,1.34
1764746352.669728,1.52
1764746352.675931,1.42
1764746352.68216,1.25
1764746352.688343,1.45
1764746352.694666,1.43
1764746352.700903,1.42
1764746352.707197,1.51
1764746352.713443,1.28
1764746352.719645,1.53
1764746352.726012,1.5
1764746352.732468,1.24
1764746352.738611,1.52
1764746352.74475,1.53
1764746352.751006,1.49
1764746352.757204,1.53
1764746352.763495,1.35
1764746352.7697978,1.65
1764746352.776002,1.65
1764746352.78225,1.51
1764746352.788665,1.65
1764746352.794831,1.46
1764746352.800885,1.56
1764746352.807244,1.71
1764746352.813375,1.49
1764746352.819886,1.62
1764746352.826117,1.57
1764746352.832246,1.43
1764746352.838571,1.62
1764746352.844714,1.45
1764746352.850873,1.41
1764746352.857193,1.61
1764746352.86347,1.54
1764746352.86965,1.58
1764746352.876088,1.49
1764746352.882372,1.54
1764746352.888475,1.76
1764746352.894701,1.58
1764746352.90099,1.62
1764746352.907126,1.71
1764746352.9135091,1.52
1764746352.919691,1.64
1764746352.925907,1.59
1764746352.932371,1.52
1764746352.938402,1.59
1764746352.944721,1.54
1764746352.950881,1.66
1764746352.957185,1.69
1764746352.96347,1.55
1764746352.969545,1.78
1764746352.975847,1.65
1764746352.982344,1.65
1764746352.9884748,2.03
1764746352.99455,1.83
1764746353.000834,1.7
1764746353.0071712,1.8
1764746353.013404,1.67
1764746353.019558,1.59
1764746353.025909,1.58
1764746353.0321789,1.52
1764746353.038452,1.46
1764746353.044618,1.29
1764746353.050935,1.57
1764746353.057172,1.59
1764746353.06363,1.31
1764746353.069691,1.42
1764746353.075883,1.51
1764746353.08224,1.47
1764746353.088375,1.5
1764746353.094591,1.33
1764746353.1007848,1.6
1764746353.107125,2.06
1764746353.1135502,2.68
1764746353.119733,3.16
1764746353.1258292,2.93
1764746353.13212,1.49
1764746353.138431,0.92
1764746353.144634,1.35
1764746353.150794,1.65
1764746353.157114,1.53
1764746353.163431,1.24
1764746353.1697369,1.43
1764746353.175869,1.39
1764746353.1821032,1.38
1764746353.1886442,1.57
1764746353.194589,1.42
1764746353.2007492,1.5
1764746353.2071,1.53
1764746353.2134552,1.42
1764746353.2196,1.66
1764746353.225905,1.57
1764746353.232275,1.47
1764746353.2387068,1.7
1764746353.2447429,1.59
1764746353.251075,1.67
1764746353.257188,1.75
1764746353.263364,1.54
1764746353.269543,1.74
1764746353.275872,1.71
1764746353.2822778,1.59
1764746353.28844,1.79
1764746353.2947688,1.69
1764746353.30096,1.69
1764746353.307127,1.74
1764746353.3138509,1.63
1764746353.319695,1.82
1764746353.3260071,1.7
1764746353.332313,1.61
1764746353.338446,1.84
1764746353.344718,1.63
1764746353.350982,1.65
1764746353.357058,1.78
1764746353.363449,1.59
1764746353.369775,1.69
1764746353.37587,1.63
1764746353.382164,1.57
1764746353.388465,1.76
1764746353.394652,1.6
1764746353.400942,1.67
1764746353.407125,1.83
1764746353.413324,1.67
1764746353.419616,1.76
1764746353.425774,1.75
1764746353.432087,1.74
1764746353.438537,1.9
1764746353.444556,1.73
1764746353.450749,1.76
1764746353.456985,1.85
1764746353.4632971,1.69
1764746353.469832,1.84
1764746353.475717,1.9
1764746353.482008,1.82
1764746353.488408,1.96
1764746353.494509,1.79
1764746353.500748,1.98
1764746353.507135,2.17
1764746353.551619,1.92
1764746353.5537689,1.96
1764746353.557864,2.02
1764746353.558046,1.83
1764746353.558199,1.77
1764746353.5583591,1.69
1764746353.558516,1.7
1764746353.558656,1.73
1764746353.570865,1.56
1764746353.570957,1.67
1764746353.580734,1.63
1764746353.582038,1.58
1764746353.597815,1.71
1764746353.604529,1.56
1764746353.604964,1.59
1764746353.607019,1.63
1764746353.613292,1.52
1764746353.628813,1.84
1764746353.629193,2.51
1764746353.6332889,3.15
1764746353.638932,3.15
1764746353.644572,2.46
1764746353.6508238,1.11
1764746353.6592698,1.23
1764746353.664708,1.59
1764746353.66951,1.64
1764746353.676102,1.46
1764746353.682094,1.41
1764746353.68832,1.6
1764746353.694643,1.52
1764746353.7008278,1.54
1764746353.706992,1.6
1764746353.713366,1.49
1764746353.719512,1.58
1764746353.7258592,1.6
1764746353.732049,1.54
1764746353.738152,1.69
1764746353.744467,1.62
1764746353.750878,1.66
1764746353.757048,1.75
1764746353.763859,1.64
1764746353.7694342,1.8
1764746353.775856,1.79
1764746353.782,1.73
1764746353.788225,1.89
1764746353.794614,1.82
1764746353.800676,1.87
1764746353.8070028,1.96
1764746353.813608,1.81
1764746353.819545,1.93
1764746353.825711,1.9
1764746353.832042,1.81
1764746353.838202,1.93
1764746353.844511,1.76
1764746353.8507268,1.78
1764746353.856962,1.89
1764746353.863532,1.7
1764746353.86948,1.79
1764746353.8757708,1.78
1764746353.882112,1.69
1764746353.888202,1.84
1764746353.8945549,1.76
1764746353.900924,1.75
1764746353.906951,1.83
1764746353.9132328,1.74
1764746353.919578,1.86
1764746353.925853,1.82
1764746353.931968,1.76
1764746353.9382432,1.96
1764746353.944399,1.82
1764746353.950743,1.82
1764746353.957025,1.91
1764746353.963758,1.77
1764746353.9693382,1.89
1764746353.975726,1.86
1764746353.9819462,1.76
1764746353.988336,1.9
1764746353.994448,1.81
1764746354.000681,1.88
1764746354.007022,1.93
1764746354.01327,1.82
1764746354.0192971,2.02
1764746354.0256808,1.95
1764746354.031911,1.9
1764746354.038168,2.16
1764746354.0444732,2.1
1764746354.050694,2.04
1764746354.05697,2.07
1764746354.06339,1.95
1764746354.069486,1.94
1764746354.0756822,1.76
1764746354.081877,1.67
1764746354.088147,1.74
1764746354.094335,1.59
1764746354.1007738,1.63
1764746354.106931,1.69
1764746354.113306,1.52
1764746354.119234,1.64
1764746354.125612,1.68
1764746354.131966,1.57
1764746354.138116,1.64
1764746354.144382,1.55
1764746354.150641,1.63
1764746354.156872,1.96
1764746354.163323,2.52
1764746354.16934,3.14
1764746354.175623,2.99
1764746354.1818712,1.96
1764746354.1881442,1.06
1764746354.1943638,1.25
1764746354.200626,1.67
1764746354.206889,1.62
1764746354.213268,1.37
1764746354.219233,1.55
1764746354.225589,1.54
1764746354.2319129,1.45
1764746354.2381382,1.57
1764746354.244359,1.5
1764746354.250527,1.53
1764746354.256889,1.62
1764746354.263156,1.46
1764746354.26926,1.6
1764746354.275592,1.56
1764746354.281875,1.49
1764746354.288158,1.63
1764746354.294316,1.52
1764746354.300755,1.56
1764746354.306896,1.69
1764746354.3134358,1.5
1764746354.319309,1.64
1764746354.325614,1.64
1764746354.3319318,1.53
1764746354.338201,1.71
1764746354.3443358,1.6
1764746354.350655,1.6
1764746354.356878,1.67
1764746354.363252,1.55
1764746354.369334,1.65
1764746354.375608,1.61
1764746354.382168,1.49
1764746354.388173,1.66
1764746354.394298,1.55
1764746354.400616,1.51
1764746354.406865,1.64
1764746354.41346,1.53
1764746354.419457,1.59
1764746354.425625,1.53
1764746354.432253,1.5
1764746354.43815,1.62
1764746354.444394,1.49
1764746354.450633,1.5
1764746354.456836,1.57
1764746354.463156,1.44
1764746354.4693062,1.53
1764746354.475563,1.48
1764746354.481902,1.41
1764746354.488131,1.56
1764746354.494262,1.42
1764746354.5006368,1.41
1764746354.506808,1.52
1764746354.51334,1.35
1764746354.519352,1.47
1764746354.5255868,1.45
1764746354.5319622,1.37
1764746354.5381272,1.51
1764746354.544574,1.41
1764746354.550611,1.44
1764746354.55679,1.58
1764746354.5633018,1.5
1764746354.5692558,1.56
1764746354.575576,1.59
1764746354.581934,1.64
1764746354.5880709,1.81
1764746354.594335,1.65
1764746354.6005492,1.64
1764746354.606843,1.72
1764746354.613369,1.44
1764746354.619227,1.4
1764746354.625657,1.38
1764746354.632019,1.29
1764746354.6380732,1.4
1764746354.644453,1.25
1764746354.650673,1.25
1764746354.656925,1.43
1764746354.663083,1.32
1764746354.669268,1.4
1764746354.6755788,1.36
1764746354.681756,1.27
1764746354.688038,1.41
1764746354.6942332,1.39
1764746354.70048,1.78
1764746354.70674,2.66
1764746354.7131698,2.85
1764746354.719271,2.63
1764746354.7255082,1.56
1764746354.731853,0.75
1764746354.737956,1.23
1764746354.744336,1.39
1764746354.7505789,1.3
1764746354.756713,1.35
1764746354.763078,1.23
1764746354.769168,1.35
1764746354.775419,1.34
1764746354.781984,1.26
1764746354.788044,1.45
1764746354.794359,1.34
1764746354.800456,1.28
1764746354.806783,1.44
1764746354.8129752,1.4
1764746354.8191202,1.49
1764746354.825509,1.4
1764746354.831784,1.28
1764746354.837983,1.47
1764746354.844192,1.5
1764746354.85043,1.55
1764746354.8567522,1.63
1764746354.862963,1.48
1764746354.869149,1.61
1764746354.875469,1.59
1764746354.8821251,1.48
1764746354.8880131,1.61
1764746354.894198,1.51
1764746354.900448,1.55
1764746354.9067142,1.71
1764746354.913108,1.53
1764746354.919225,1.56
1764746354.9255092,1.57
1764746354.9317272,1.51
1764746354.937943,1.67
1764746354.944195,1.52
1764746354.9504268,1.5
1764746354.956701,1.72
1764746354.963003,1.54
1764746354.969332,1.51
1764746354.975515,1.54
1764746354.981799,1.59
1764746354.988179,1.59
1764746354.994293,1.38
1764746355.00057,1.44
1764746355.0067232,1.66
1764746355.013032,1.46
1764746355.019182,1.47
1764746355.025638,1.41
1764746355.0317,1.4
1764746355.037992,1.59
1764746355.044396,1.42
1764746355.050529,1.36
1764746355.056663,1.52
1764746355.063246,1.41
1764746355.069132,1.4
1764746355.0753531,1.45
1764746355.081766,1.5
1764746355.088087,1.68
1764746355.0942569,1.54
1764746355.100402,1.54
1764746355.106646,1.82
1764746355.113297,1.77
1764746355.11922,1.9
1764746355.12546,1.77
1764746355.1317031,1.64
1764746355.137905,1.74
1764746355.1442418,1.46
1764746355.15043,1.42
1764746355.156681,1.59
1764746355.162972,1.3
1764746355.169157,1.34
1764746355.175444,1.57
1764746355.277912,1.55
1764746355.278393,1.64
1764746355.278686,1.43
1764746355.279401,1.41
1764746355.2797031,1.61
1764746355.279972,1.54
1764746355.280267,1.71
1764746355.280597,1.82
1764746355.280896,2.36
1764746355.28119,3.16
1764746355.281479,2.9
1764746355.281759,2.0
1764746355.282031,1.14
1764746355.2823,0.99
1764746355.2825742,1.4
1764746355.282851,1.23
1764746355.283156,1.05
1764746355.2882571,1.52
1764746355.294527,1.28
1764746355.3005052,1.12
1764746355.3066702,1.29
1764746355.31295,1.17
1764746355.319222,1.56
1764746355.325407,1.5
1764746355.33166,1.23
1764746355.3380191,1.54
1764746355.344198,1.51
1764746355.353943,1.41
1764746355.357041,1.48
1764746355.363177,1.29
1764746355.369259,1.56
1764746355.375411,1.41
1764746355.381669,1.21
1764746355.388198,1.63
1764746355.394277,1.48
1764746355.400574,1.23
1764746355.406614,1.47
1764746355.412888,1.48
1764746355.419179,1.61
1764746355.425444,1.41
1764746355.4316149,1.22
1764746355.437824,1.46
1764746355.444122,1.38
1764746355.4504168,1.17
1764746355.456692,1.42
1764746355.4628649,1.4
1764746355.46912,1.36
1764746355.475693,1.16
1764746355.48178,1.23
1764746355.487901,1.48
1764746355.494347,1.22
1764746355.50043,1.36
1764746355.506654,1.43
1764746355.512989,1.08
1764746355.519059,1.31
1764746355.525465,1.39
1764746355.531648,1.13
1764746355.537824,1.2
1764746355.544058,1.2
1764746355.550378,1.11
1764746355.556601,1.33
1764746355.562925,1.19
1764746355.569087,1.29
1764746355.575393,1.34
1764746355.581635,1.11
1764746355.587797,1.24
1764746355.594125,1.23
1764746355.6002822,1.3
1764746355.606743,1.41
1764746355.613599,1.14
1764746355.619046,1.37
1764746355.625328,1.46
1764746355.631718,1.42
1764746355.637811,1.51
1764746355.6440551,1.24
1764746355.650265,1.26
1764746355.656563,1.58
1764746355.662905,1.35
1764746355.669088,1.12
1764746355.6753511,1.08
1764746355.681574,1.12
1764746355.687875,1.19
1764746355.694329,1.04
1764746355.70033,1.04
1764746355.706557,1.15
1764746355.713686,0.93
1764746355.719284,1.16
1764746355.725363,1.19
1764746355.731573,0.81
1764746355.737806,1.05
1764746355.7440362,1.22
1764746355.75023,1.36
1764746355.756581,1.81
1764746355.7628832,2.42
1764746355.769017,2.77
1764746355.775307,1.98
1764746355.781513,0.65
1764746355.787808,0.57
1764746355.794136,0.97
1764746355.8002691,1.11
1764746355.806537,1.01
1764746355.8131368,0.63
1764746355.819093,0.94
1764746355.825284,1.13
1764746355.831593,1.02
1764746355.837815,1.08
1764746355.8440478,0.95
1764746355.850256,1.05
1764746355.856536,1.17
1764746355.8628428,1.1
1764746355.869078,1.21
1764746355.875319,1.24
1764746355.881553,1.13
1764746355.887912,1.26
1764746355.89406,1.28
1764746355.900202,1.25
1764746355.906515,1.31
1764746355.913345,1.29
1764746355.9190452,1.3
1764746355.925233,1.46
1764746355.931534,1.48
1764746355.93792,1.63
1764746355.944236,1.41
1764746355.95035,1.45
1764746355.956514,1.55
1764746355.96319,1.44
1764746355.968979,1.61
1764746355.9752362,1.56
1764746355.981845,1.42
1764746355.987882,1.7
1764746355.994771,1.54
1764746356.000289,1.43
1764746356.006531,1.68
1764746356.013171,1.56
1764746356.0190048,1.58
1764746356.025576,1.55
1764746356.031539,1.56
1764746356.037725,1.68
1764746356.044047,1.58
1764746356.050303,1.65
1764746356.05651,1.8
1764746356.062826,1.55
1764746356.069112,1.74
1764746356.075234,1.81
1764746356.081404,1.81
1764746356.087744,1.92
1764746356.0955782,1.74
1764746356.10025,1.68
1764746356.106486,1.93
1764746356.1127691,1.88
1764746356.119568,2.0
1764746356.1253,1.96
1764746356.131615,1.9
1764746356.137745,2.15
1764746356.144049,2.1
1764746356.150215,2.09
1764746356.1564429,2.33
1764746356.163108,2.18
1764746356.16895,2.21
1764746356.175179,2.21
1764746356.1820748,2.01
1764746356.18771,2.06
1764746356.193995,1.94
1764746356.200205,1.95
1764746356.2064252,2.01
1764746356.213523,1.79
1764746356.2189372,1.92
1764746356.232226,2.02
1764746356.2351282,1.98
1764746356.240445,2.07
1764746356.248592,1.89
1764746356.250239,2.0
1764746356.2669408,2.2
1764746356.271868,1.94
1764746356.272105,2.21
1764746356.275195,2.85
1764746356.282069,3.16
1764746356.288277,3.17
1764746356.294044,3.17
1764746356.3003142,2.61
1764746356.306589,1.46
1764746356.3130188,1.62
1764746356.3190012,2.29
1764746356.3252668,2.19
1764746356.3315892,1.88
1764746356.337593,2.24
1764746356.344019,2.1
1764746356.35017,2.0
1764746356.356523,2.15
1764746356.3626812,2.08
1764746356.368986,2.29
1764746356.375181,2.31
1764746356.3816378,2.12
1764746356.3876638,2.4
1764746356.394106,2.32
1764746356.400213,2.26
1764746356.406662,2.45
1764746356.4127302,2.25
1764746356.418986,2.39
1764746356.425338,2.49
1764746356.431696,2.38
1764746356.437738,2.53
1764746356.443962,2.39
1764746356.450193,2.44
1764746356.456457,2.64
1764746356.4627662,2.45
1764746356.4688718,2.6
1764746356.475163,2.69
1764746356.481488,2.5
1764746356.4877188,2.63
1764746356.494047,2.55
1764746356.500233,2.52
1764746356.506403,2.67
1764746356.513134,2.45
1764746356.518898,2.54
1764746356.525142,2.63
1764746356.531497,2.43
1764746356.537642,2.56
1764746356.543934,2.5
1764746356.550355,2.45
1764746356.556468,2.57
1764746356.562717,2.37
1764746356.568922,2.49
1764746356.575103,2.54
1764746356.581515,2.35
1764746356.587658,2.54
1764746356.593866,2.45
1764746356.600149,2.39
1764746356.606484,2.53
1764746356.612685,2.32
1764746356.61888,2.39
1764746356.625162,2.45
1764746356.631401,2.32
1764746356.6376069,2.48
1764746356.64388,2.31
1764746356.650184,2.32
1764746356.656547,2.53
1764746356.663237,2.29
1764746356.66893,2.34
1764746356.675194,2.5
1764746356.68143,2.38
1764746356.687619,2.37
1764746356.6940548,2.18
1764746356.700077,2.05
1764746356.706432,2.05
1764746356.712729,1.79
1764746356.7189171,1.89
1764746356.72513,1.89
1764746356.731456,1.66
1764746356.7375722,1.77
1764746356.74386,1.7
1764746356.75008,1.72
1764746356.7563891,1.81
1764746356.762618,1.59
1764746356.768756,1.69
1764746356.775132,1.66
1764746356.781396,1.46
1764746356.787576,1.65
1764746356.793901,1.8
1764746356.800202,2.54
1764746356.8063638,3.15
1764746356.812923,2.94
1764746356.8190022,1.95
1764746356.825227,0.87
1764746356.831425,1.0
1764746356.837612,1.55
1764746356.843824,1.27
1764746356.850143,1.19
1764746356.856547,1.38
1764746356.862635,1.21
1764746356.869003,1.31
1764746356.875138,1.38
1764746356.881381,1.19
1764746356.887567,1.37
1764746356.893732,1.31
1764746356.9001138,1.28
1764746356.906411,1.38
1764746356.9128,1.23
1764746356.9188118,1.33
1764746356.924997,1.37
1764746356.931395,1.22
1764746356.937842,1.39
1764746356.943795,1.36
1764746356.950086,1.32
1764746356.9563258,1.43
1764746356.9631062,1.29
1764746356.9687848,1.45
1764746356.975061,1.47
1764746356.981408,1.3
1764746356.98755,1.52
1764746356.9939651,1.42
1764746356.999926,1.3
1764746357.0063748,1.42
1764746357.0125608,1.26
1764746357.018794,1.36
1764746357.0250392,1.39
1764746357.031616,1.28
1764746357.03751,1.41
1764746357.0470989,1.34
1764746357.0500531,1.32
1764746357.058178,1.44
1764746357.064933,1.28
1764746357.089161,1.35
1764746357.109073,1.41
1764746357.110136,1.34
1764746357.11383,1.47
1764746357.113954,1.31
1764746357.114042,1.29
1764746357.114125,1.47
1764746357.114207,1.31
1764746357.121839,1.36
1764746357.1260958,1.41
1764746357.1340952,1.31
1764746357.1401532,1.42
1764746357.143902,1.34
1764746357.150091,1.3
1764746357.156335,1.41
1764746357.171874,1.31
1764746357.172554,1.36
1764746357.1750588,1.39
1764746357.181351,1.28
1764746357.187575,1.45
1764746357.193835,1.44
1764746357.200042,1.41
1764746357.2066472,1.5
1764746357.212537,1.51
1764746357.2187562,1.71
1764746357.2250931,1.62
1764746357.231292,1.39
1764746357.237497,1.6
1764746357.243756,1.47
1764746357.250036,1.24
1764746357.256259,1.33
1764746357.262532,1.21
1764746357.268683,1.23
1764746357.274878,1.22
1764746357.281121,1.13
1764746357.287467,1.28
1764746357.293749,1.18
1764746357.3000169,1.16
1764746357.306206,1.28
1764746357.312494,1.13
1764746357.318696,1.14
1764746357.3248892,1.25
1764746357.331136,1.43
1764746357.337464,2.2
1764746357.3436532,2.64
1764746357.350008,2.56
1764746357.3563032,1.91
1764746357.36243,0.65
1764746357.368701,0.77
1764746357.3749068,1.29
1764746357.381258,1.15
1764746357.3874922,1.11
1764746357.393912,1.07
1764746357.400012,1.07
1764746357.406202,1.16
1764746357.412423,1.03
1764746357.418823,1.09
1764746357.4249642,1.19
1764746357.431147,1.09
1764746357.437373,1.23
1764746357.443728,1.17
1764746357.449906,1.14
1764746357.456181,1.28
1764746357.462497,1.16
1764746357.4687428,1.25
1764746357.474985,1.29
1764746357.481143,1.23
1764746357.4873989,1.35
1764746357.4937248,1.28
1764746357.499904,1.26
1764746357.506164,1.4
1764746357.5124822,1.24
1764746357.518552,1.33
1764746357.524885,1.45
1764746357.531132,1.3
1764746357.537409,1.36
1764746357.543684,1.28
1764746357.549956,1.3
1764746357.556132,1.43
1764746357.562434,1.28
1764746357.568648,1.32
1764746357.574892,1.34
1764746357.581109,1.25
1764746357.5873852,1.38
1764746357.593631,1.29
1764746357.5998552,1.28
1764746357.606101,1.44
1764746357.6123588,1.27
1764746357.6188002,1.26
1764746357.624907,1.37
1764746357.6311,1.23
1764746357.637414,1.3
1764746357.64388,1.3
1764746357.649893,1.32
1764746357.656179,1.41
1764746357.6624289,1.23
1764746357.66866,1.16
1764746357.674989,1.05
1764746357.681244,0.95
1764746357.68741,1.12
1764746357.693713,0.99
1764746357.699889,0.71
1764746357.706111,0.73
1764746357.712435,0.71
1764746357.718581,0.85
1764746357.724822,0.9
1764746357.731058,0.77
1764746357.737429,1.0
1764746357.743582,1.09
1764746357.749919,1.06
1764746357.756133,1.11
1764746357.762484,1.0
1764746357.768545,1.13
1764746357.774783,1.05
1764746357.781042,0.75
1764746357.787297,0.88
1764746357.7936242,0.86
1764746357.799943,0.8
1764746357.8061051,0.94
1764746357.812365,0.86
1764746357.81856,0.88
1764746357.824901,1.0
1764746357.831121,0.83
1764746357.83733,0.98
1764746357.8435898,0.98
1764746357.849797,0.84
1764746357.856052,0.99
1764746357.862331,1.12
1764746357.8686368,1.87
1764746357.8747709,2.54
1764746357.881042,2.24
1764746357.887319,1.55
1764746357.8935611,0.61
1764746357.8998358,0.58
1764746357.906023,0.99
1764746357.9123409,0.87
1764746357.918616,0.89
1764746357.924928,1.0
1764746357.931059,0.91
1764746357.93733,1.04
1764746357.94358,0.99
1764746357.9498298,1.0
1764746357.956072,1.16
1764746357.962421,1.05
1764746357.96851,1.08
1764746357.9748402,1.2
1764746357.9809978,1.11
1764746357.987304,1.24
1764746357.993538,1.28
1764746357.999752,1.24
1764746358.005974,1.31
1764746358.012269,1.22
1764746358.0185769,1.3
1764746358.024848,1.42
1764746358.0310469,1.35
1764746358.037281,1.43
1764746358.043574,1.29
1764746358.0497532,1.45
1764746358.056014,1.61
1764746358.06236,1.36
1764746358.068613,1.41
1764746358.074719,1.52
1764746358.081017,1.38
1764746358.08732,1.48
1764746358.093577,1.4
1764746358.099735,1.39
1764746358.1059651,1.57
1764746358.112349,1.38
1764746358.118489,1.44
1764746358.1247349,1.61
1764746358.131104,1.46
1764746358.137294,1.46
1764746358.143596,1.45
1764746358.149774,1.48
1764746358.156045,1.59
1764746358.162296,1.41
1764746358.168533,1.52
1764746358.1747231,1.47
1764746358.181004,1.37
1764746358.187258,1.64
1764746358.193504,1.56
1764746358.199713,1.47
1764746358.2060091,1.71
1764746358.21228,1.52
1764746358.21849,1.59
1764746358.2247748,1.66
1764746358.231031,1.47
1764746358.237316,1.73
1764746358.24354,1.79
1764746358.24971,1.69
1764746358.255946,1.82
1764746358.262236,1.7
1764746358.268526,1.93
1764746358.274791,2.02
1764746358.28095,1.81
1764746358.287282,1.91
1764746358.293545,1.89
1764746358.2997172,1.79
1764746358.305974,1.77
1764746358.312271,1.54
1764746358.318465,1.75
1764746358.3247738,1.77
1764746358.3310158,1.51
1764746358.3373282,1.78
1764746358.343619,1.75
1764746358.349738,1.68
1764746358.355941,1.93
1764746358.362249,1.71
1764746358.368445,1.81
1764746358.374781,1.92
1764746358.380926,1.73
1764746358.387247,2.12
1764746358.393473,2.72
1764746358.399717,3.16
1764746358.405952,3.16
1764746358.412572,2.88
1764746358.418445,1.7
1764746358.424751,1.36
1764746358.431135,1.59
1764746358.4373178,2.0
1764746358.443584,1.89
1764746358.449887,1.71
1764746358.456009,1.98
1764746358.462315,1.77
1764746358.468467,1.87
1764746358.474714,2.13
1764746358.480914,1.92
1764746358.487253,2.05
1764746358.493491,2.06
1764746358.499688,2.04
1764746358.505931,2.21
1764746358.5122051,2.04
1764746358.5184488,2.12
1764746358.5247202,2.18
1764746358.53088,1.99
1764746358.5372102,2.3
1764746358.543529,2.31
1764746358.5496268,2.13
1764746358.556681,2.44
1764746358.583969,2.42
1764746358.607007,2.46
1764746358.620338,2.52
1764746358.639612,2.42
1764746358.639816,2.49
1764746358.639953,2.4
1764746358.6400828,2.39
1764746358.6489651,2.67
1764746358.649489,2.39
1764746358.649899,2.42
1764746358.650356,2.45
1764746358.650867,2.4
1764746358.6510668,2.61
1764746358.651234,2.33
1764746358.651417,2.16
1764746358.6560588,2.57
1764746358.662387,2.43
1764746358.669628,2.39
1764746358.682267,2.45
1764746358.6829472,2.33
1764746358.687241,2.41
1764746358.693544,2.33
1764746358.69974,2.3
1764746358.7060091,2.42
1764746358.712265,2.17
1764746358.718493,2.17
1764746358.724807,2.22
1764746358.731113,2.05
1764746358.7371688,2.36
1764746358.74359,2.25
1764746358.749873,2.01
1764746358.756011,2.17
1764746358.762757,2.19
1764746358.7684228,2.26
1764746358.774693,2.21
1764746358.781914,2.17
1764746358.7873,2.29
1764746358.794344,2.32
1764746358.7996511,2.42
1764746358.8059368,2.37
1764746358.812546,2.01
1764746358.818424,2.21
1764746358.824685,2.22
1764746358.830879,1.87
1764746358.837219,1.91
1764746358.84347,1.8
1764746358.8496482,1.71
1764746358.8558762,1.95
1764746358.8625169,1.73
1764746358.868385,1.66
1764746358.874652,1.72
1764746358.881088,1.67
1764746358.887197,1.82
1764746358.89343,1.59
1764746358.8995771,1.53
1764746358.9058502,1.92
1764746358.9126122,2.03
1764746358.918483,2.7
1764746358.9247098,3.15
1764746358.9309,2.95
1764746358.937151,2.31
1764746358.943753,1.19
1764746358.94963,1.18
1764746358.955905,1.68
1764746358.962274,1.49
1764746358.968399,1.46
1764746358.9746292,1.59
1764746358.980937,1.47
1764746358.9871092,1.68
1764746358.993425,1.58
1764746358.9995918,1.56
1764746359.005923,1.75
1764746359.012169,1.55
1764746359.0183392,1.71
1764746359.024726,1.88
1764746359.0309272,1.69
1764746359.037059,1.84
1764746359.043394,1.83
1764746359.049567,1.89
1764746359.055812,2.03
1764746359.0621629,1.81
1764746359.068345,1.94
1764746359.074625,1.98
1764746359.080843,1.74
1764746359.087071,1.96
1764746359.093585,1.94
1764746359.0995378,1.84
1764746359.105803,2.05
1764746359.112109,1.75
1764746359.118282,1.8
1764746359.124642,1.96
1764746359.130761,1.68
1764746359.137067,1.82
1764746359.143452,1.76
1764746359.149589,1.77
1764746359.155931,1.91
1764746359.1621492,1.57
1764746359.168486,1.59
1764746359.174759,1.75
1764746359.180802,1.62
1764746359.18714,1.77
1764746359.193294,1.66
1764746359.1995258,1.66
1764746359.205895,1.89
1764746359.212279,1.67
1764746359.218251,1.8
1764746359.224544,1.87
1764746359.230871,1.56
1764746359.237071,1.8
1764746359.243399,1.86
1764746359.24959,1.74
1764746359.255778,1.87
1764746359.262068,1.63
1764746359.268279,1.8
1764746359.274591,1.97
1764746359.28079,1.74
1764746359.287202,1.97
1764746359.293872,1.96
1764746359.2996511,1.77
1764746359.305737,2.02
1764746359.31207,2.0
1764746359.318319,2.1
1764746359.324675,2.09
1764746359.330886,1.81
1764746359.337062,1.96
1764746359.343492,1.91
1764746359.3495731,1.67
1764746359.355763,1.75
1764746359.362092,1.67
1764746359.368326,1.73
1764746359.374656,1.72
1764746359.380758,1.57
1764746359.3870668,1.78
1764746359.393454,1.67
1764746359.3995352,1.59
1764746359.405898,1.68
1764746359.412024,1.6
1764746359.418209,1.68
1764746359.4245691,1.7
1764746359.43079,1.63
1764746359.43704,2.38
1764746359.443317,3.08
1764746359.449482,3.07
1764746359.455794,2.47
1764746359.462013,1.0
1764746359.468234,0.94
1764746359.474795,1.48
1764746359.4808269,1.29
1764746359.487039,1.29
1764746359.493398,1.26
1764746359.49953,1.29
1764746359.5059998,1.39
1764746359.5120242,1.12
1764746359.518282,1.23
1764746359.5247202,1.4
1764746359.5308108,1.19
1764746359.5375402,1.31
1764746359.543315,1.26
1764746359.549493,1.19
1764746359.555774,1.33
1764746359.5622149,1.19
1764746359.568203,1.28
1764746359.574504,1.34
1764746359.5807989,1.17
1764746359.587024,1.34
1764746359.5932422,1.3
1764746359.599482,1.23
1764746359.6057532,1.35
1764746359.612007,1.26
1764746359.61826,1.39
1764746359.624437,1.44
1764746359.6306849,1.22
1764746359.637007,1.44
1764746359.6433191,1.42
1764746359.649386,1.29
1764746359.655649,1.44
1764746359.66195,1.28
1764746359.668212,1.31
1764746359.674433,1.36
1764746359.6806662,1.29
1764746359.686987,1.42
1764746359.693475,1.29
1764746359.6994429,1.22
1764746359.705801,1.35
1764746359.711979,1.26
1764746359.7182012,1.36
1764746359.724425,1.42
1764746359.7306051,1.23
1764746359.736892,1.37
1764746359.743467,1.3
1764746359.749454,1.23
1764746359.755611,1.31
1764746359.761921,1.1
1764746359.768098,1.21
1764746359.77447,1.28
1764746359.780728,1.09
1764746359.786895,1.24
1764746359.7932212,1.21
1764746359.799468,1.12
1764746359.80568,1.25
1764746359.811887,1.13
1764746359.818107,1.2
1764746359.8244631,1.37
1764746359.830678,1.26
1764746359.836857,1.34
1764746359.843643,1.33
1764746359.849424,1.37
1764746359.855581,1.5
1764746359.8618932,1.27
1764746359.868086,1.29
1764746359.874393,1.34
1764746359.88072,1.01
1764746359.886861,1.02
1764746359.893151,1.02
1764746359.899423,0.91
1764746359.9055738,0.98
1764746359.911894,0.86
1764746359.918111,0.9
1764746359.9243798,0.96
1764746359.930686,0.8
1764746359.936864,0.91
1764746359.943373,0.9
1764746359.949373,0.8
1764746359.9555788,0.9
1764746359.961867,0.89
1764746359.968142,1.42
1764746359.974411,2.22
1764746359.980688,2.25
1764746359.986803,1.97
1764746359.9932292,0.8
1764746359.999372,0.13
1764746360.0056682,0.73
1764746360.011895,0.86
1764746360.018152,0.65
1764746360.0244029,0.64
1764746360.030634,0.61
1764746360.0368462,0.76
1764746360.0433369,0.68
1764746360.049369,0.63
1764746360.055671,0.76
1764746360.061798,0.69
1764746360.0681531,0.73
1764746360.074396,0.81
1764746360.0806668,0.63
1764746360.086828,0.8
1764746360.093357,0.85
1764746360.099362,0.76
1764746360.1056051,0.83
1764746360.1118348,0.75
1764746360.118111,0.81
1764746360.1244318,0.91
1764746360.130528,0.79
1764746360.136832,0.89
1764746360.143261,0.87
1764746360.149315,0.77
1764746360.155552,0.88
1764746360.161862,0.79
1764746360.1681778,0.81
1764746360.214506,0.86
1764746360.234533,0.71
1764746360.248942,0.82
1764746360.250294,0.79
1764746360.251968,0.7
1764746360.253463,0.84
1764746360.254192,0.75
1764746360.256085,0.74
1764746360.2571929,0.86
1764746360.258324,0.75
1764746360.320609,0.85
1764746360.329112,0.77
1764746360.329535,0.72
1764746360.329899,0.84
1764746360.3310258,0.74
1764746360.33137,0.7
1764746360.331702,0.84
1764746360.332899,0.78
1764746360.334007,0.81
1764746360.334558,0.77
1764746360.3350642,0.7
1764746360.335747,0.84
1764746360.336458,0.79
1764746360.337017,0.81
1764746360.337363,0.86
1764746360.337823,0.73
1764746360.338424,0.82
1764746360.343203,0.82
1764746360.3494642,0.76
1764746360.355666,0.93
1764746360.361996,0.87
1764746360.368161,0.96
1764746360.374402,1.02
1764746360.3805969,0.99
1764746360.386851,1.13
1764746360.393114,1.1
1764746360.39935,0.97
1764746360.40556,1.15
1764746360.4118552,0.92
1764746360.418089,0.71
1764746360.424659,0.85
1764746360.430638,0.82
1764746360.436796,0.8
1764746360.443661,0.73
1764746360.449265,0.72
1764746360.455561,0.94
1764746360.461828,0.87
1764746360.4680471,0.83
1764746360.474373,0.92
1764746360.484002,0.83
1764746360.486858,0.87
1764746360.494863,0.93
1764746360.499294,1.16
1764746360.505623,2.03
1764746360.5118458,2.48
1764746360.518,2.34
1764746360.52488,1.51
1764746360.530606,0.44
1764746360.5368268,0.75
1764746360.54423,1.07
1764746360.549303,0.88
1764746360.555561,1.02
1764746360.56186,1.04
1764746360.568018,1.0
1764746360.574313,1.06
1764746360.580548,1.03
1764746360.586765,1.14
1764746360.593006,1.11
1764746360.5992708,1.07
1764746360.60577,1.22
1764746360.611969,1.1
1764746360.6181078,1.19
1764746360.624369,1.34
1764746360.630589,1.22
1764746360.637183,1.3
1764746360.6447349,1.36
1764746360.649348,1.33
1764746360.655616,1.5
1764746360.662198,1.47
1764746360.668024,1.43
1764746360.674331,1.52
1764746360.6805592,1.46
1764746360.68678,1.56
1764746360.693131,1.54
1764746360.6992378,1.52
1764746360.705526,1.59
1764746360.711798,1.48
1764746360.717974,1.52
1764746360.724264,1.56
1764746360.7304902,1.59
1764746360.736812,1.65
1764746360.744028,1.6
1764746360.749214,1.58
1764746360.75549,1.71
1764746360.761728,1.56
1764746360.767982,1.59
1764746360.77437,1.69
1764746360.7804968,1.54
1764746360.786753,1.63
1764746360.7931871,1.65
1764746360.799237,1.47
1764746360.805505,1.85
1764746360.811713,1.79
1764746360.81793,1.62
1764746360.824216,1.8
1764746360.830494,1.73
1764746360.836707,1.73
1764746360.843185,1.71
1764746360.849202,1.59
1764746360.855503,1.7
1764746360.861682,1.61
1764746360.867914,1.66
1764746360.874187,1.72
1764746360.88045,1.56
1764746360.88672,1.69
1764746360.892979,1.77
1764746360.899261,1.74
1764746360.9057028,2.03
1764746360.911741,1.86
1764746360.917975,1.74
1764746360.924494,1.92
1764746360.930482,1.77
1764746360.936679,1.7
1764746360.943426,1.66
1764746360.949294,1.55
1764746360.955515,1.63
1764746360.962038,1.55
1764746360.9680178,1.65
1764746360.974849,1.66
1764746360.980523,1.43
1764746360.986737,1.62
1764746360.99296,1.8
1764746360.9992452,1.64
1764746361.005627,1.69
1764746361.0118558,1.67
1764746361.017976,1.81
1764746361.0241868,2.64
1764746361.030508,3.15
1764746361.036862,3.13
1764746361.0430532,2.44
1764746361.049215,1.28
1764746361.055518,1.34
1764746361.0619671,1.52
1764746361.067984,1.45
1764746361.074296,1.52
1764746361.0804732,1.39
1764746361.0867698,1.65
1764746361.092989,1.67
1764746361.099249,1.4
1764746361.105581,1.74
1764746361.1123111,1.6
1764746361.1179671,1.64
1764746361.124285,1.86
1764746361.130496,1.78
1764746361.136833,1.89
1764746361.143252,1.8
1764746361.149218,1.74
1764746361.1554391,1.94
1764746361.1617348,1.71
1764746361.1680052,1.79
1764746361.174455,1.97
1764746361.180479,1.66
1764746361.186686,1.69
1764746361.1929731,1.8
1764746361.199171,1.8
1764746361.205463,1.97
1764746361.211664,1.74
1764746361.217931,1.8
1764746361.224313,1.89
1764746361.2303958,1.85
1764746361.236636,2.14
1764746361.2429,2.1
1764746361.2491982,1.99
1764746361.255342,2.02
1764746361.261609,1.86
1764746361.267856,2.0
1764746361.2741098,2.09
1764746361.28036,1.78
1764746361.286565,2.01
1764746361.292879,1.99
1764746361.299034,1.94
1764746361.305353,2.24
1764746361.311646,2.02
1764746361.317899,1.88
1764746361.324148,2.09
1764746361.330399,1.94
1764746361.336628,1.94
1764746361.3428469,1.93
1764746361.349064,1.84
1764746361.35536,2.01
1764746361.361784,1.86
1764746361.367874,1.8
1764746361.374292,1.92
1764746361.3802948,1.7
1764746361.3866172,1.87
1764746361.392861,2.0
1764746361.399224,1.84
1764746361.405416,2.0
1764746361.4116302,2.09
1764746361.417856,2.12
1764746361.4242291,2.01
1764746361.43042,1.86
1764746361.436617,2.08
1764746361.442893,1.91
1764746361.449118,1.67
1764746361.455444,1.79
1764746361.461532,1.68
1764746361.4677708,1.67
1764746361.474029,1.61
1764746361.480447,1.56
1764746361.4865558,1.78
1764746361.492958,1.69
1764746361.49908,1.59
1764746361.505357,1.75
1764746361.5118022,1.63
1764746361.517872,1.61
1764746361.5242682,1.82
1764746361.5303411,1.86
1764746361.536601,2.48
1764746361.542825,3.16
1764746361.549164,3.15
1764746361.555326,2.56
1764746361.5615602,1.12
1764746361.567683,1.13
1764746361.574175,1.73
1764746361.580267,1.62
1764746361.5865788,1.44
1764746361.592824,1.43
1764746361.5991511,1.54
1764746361.6053472,1.69
1764746361.611511,1.55
1764746361.617783,1.52
1764746361.624216,1.59
1764746361.6303182,1.57
1764746361.636552,1.73
1764746361.642918,1.73
1764746361.6489978,1.51
1764746361.655307,1.71
1764746361.66151,1.75
1764746361.667716,1.63
1764746361.6741068,1.6
1764746361.680393,1.56
1764746361.686603,1.73
1764746361.692796,1.74
1764746361.699307,1.7
1764746361.705261,1.77
1764746361.711491,1.67
1764746361.717832,1.72
1764746361.724149,1.79
1764746361.730258,1.7
1764746361.736456,1.71
1764746361.7427762,1.75
1764746361.7490509,1.67
1764746361.755285,1.74
1764746361.761406,1.6
1764746361.7679129,1.63
1764746361.774133,1.67
1764746361.7803771,1.55
1764746361.786454,1.74
1764746361.792755,1.72
1764746361.7989602,1.49
1764746361.805192,1.71
1764746361.811577,1.67
1764746361.817696,1.57
1764746361.824254,1.73
1764746361.830218,1.72
1764746361.8364558,1.86
1764746361.842852,1.86
1764746361.849013,1.78
1764746361.855234,1.88
1764746361.861556,1.78
1764746361.867681,1.82
1764746361.874076,2.0
1764746361.880182,1.75
1764746361.886436,1.82
1764746361.892707,1.89
1764746361.898939,1.88
1764746361.905216,2.12
1764746361.9114408,1.99
1764746361.917694,1.89
1764746361.924007,2.09
1764746361.930184,2.12
1764746361.93649,2.3
1764746361.942806,2.22
1764746361.949004,2.02
1764746361.955405,2.25
1764746361.961468,2.06
1764746361.967868,1.89
1764746361.974277,2.01
1764746361.980257,1.79
1764746361.986593,1.84
1764746361.992828,1.83
1764746361.999207,1.76
1764746362.005579,1.92
1764746362.011578,1.8
1764746362.017838,1.77
1764746362.024367,1.89
1764746362.0303712,1.82
1764746362.036649,1.9
1764746362.04287,1.93
1764746362.049144,2.04
1764746362.0553222,2.93
1764746362.061673,3.16
1764746362.067713,3.16
1764746362.0742168,2.87
1764746362.080255,1.35
1764746362.086525,1.32
1764746362.0927749,1.89
1764746362.099031,1.76
1764746362.105214,1.74
1764746362.15584,1.68
1764746362.156363,1.73
1764746362.156853,1.79
1764746362.157126,1.58
1764746362.157363,1.76
1764746362.157622,1.84
1764746362.1579149,1.71
1764746362.15813,1.84
1764746362.187236,1.75
1764746362.225207,1.73
1764746362.261299,1.85
1764746362.26218,1.74
1764746362.26275,1.84
1764746362.262896,1.86
1764746362.263009,1.76
1764746362.263118,1.87
1764746362.263244,1.8
1764746362.263359,1.83
1764746362.263513,1.98
1764746362.263773,1.83
1764746362.263954,1.92
1764746362.264226,1.91
1764746362.26452,1.86
1764746362.2647731,1.99
1764746362.264972,1.88
1764746362.2685142,1.8
1764746362.27403,1.95
1764746362.2808802,1.82
1764746362.286478,1.81
1764746362.29374,1.85
1764746362.298941,1.74
1764746362.3051178,1.77
1764746362.31153,1.72
1764746362.317867,1.72
1764746362.3240168,1.79
1764746362.33033,1.72
1764746362.336715,1.74
1764746362.34288,1.72
1764746362.348889,1.73
1764746362.3552089,1.93
1764746362.361877,1.75
1764746362.367756,1.68
1764746362.373834,1.78
1764746362.380107,1.69
1764746362.386389,1.74
1764746362.392607,1.7
1764746362.3989491,1.58
1764746362.405154,1.73
1764746362.411348,1.61
1764746362.4175842,1.57
1764746362.4239092,1.69
1764746362.430333,1.64
1764746362.4363918,1.74
1764746362.442655,1.71
1764746362.4488509,1.65
1764746362.4551392,1.95
1764746362.461359,1.91
1764746362.467503,1.76
1764746362.47383,1.86
1764746362.4801002,1.73
1764746362.486335,1.66
1764746362.4925718,1.62
1764746362.4988768,1.45
1764746362.505012,1.47
1764746362.511206,1.37
1764746362.51762,1.42
1764746362.523821,1.49
1764746362.530014,1.36
1764746362.536213,1.42
1764746362.542603,1.48
1764746362.5487628,1.32
1764746362.555104,1.35
1764746362.561246,1.32
1764746362.567563,1.42
1764746362.573809,1.8
1764746362.5800772,2.47
1764746362.586299,3.08
1764746362.5925848,2.77
1764746362.598805,1.39
1764746362.605032,0.83
1764746362.6113322,1.21
1764746362.6176078,1.36
1764746362.62382,1.33
1764746362.63012,1.19
1764746362.636301,1.33
1764746362.64276,1.36
1764746362.648763,1.21
1764746362.655066,1.36
1764746362.661411,1.34
1764746362.667542,1.33
1764746362.673743,1.44
1764746362.680059,1.3
1764746362.6862211,1.4
1764746362.692579,1.44
1764746362.6988668,1.36
1764746362.705042,1.47
1764746362.711294,1.44
1764746362.717518,1.45
1764746362.723824,1.53
1764746362.730057,1.46
1764746362.736418,1.59
1764746362.742582,1.6
1764746362.748922,1.5
1764746362.755082,1.67
1764746362.7614112,1.64
1764746362.767561,1.63
1764746362.773796,1.73
1764746362.780072,1.58
1764746362.78647,1.63
1764746362.792537,1.64
1764746362.798817,1.51
1764746362.805067,1.63
1764746362.8112938,1.53
1764746362.8175309,1.5
1764746362.823741,1.64
1764746362.8299851,1.45
1764746362.836297,1.49
1764746362.842552,1.43
1764746362.848782,1.15
1764746362.8549812,1.31
1764746362.861257,1.27
1764746362.867524,1.18
1764746362.873778,1.19
1764746362.879846,0.89
1764746362.886272,0.92
1764746362.892549,1.06
1764746362.89884,0.96
1764746362.905024,1.04
1764746362.911202,1.05
1764746362.917523,1.02
1764746362.923739,1.13
1764746362.929971,1.06
1764746362.936212,1.13
1764746362.942554,1.25
1764746362.948718,1.17
1764746362.955058,1.3
1764746362.961272,1.37
1764746362.9674711,1.3
1764746362.973755,1.44
1764746362.979972,1.48
1764746362.986274,1.51
1764746362.992511,1.45
1764746362.998775,1.39
1764746363.004958,1.5
1764746363.011199,1.27
1764746363.017462,1.11
1764746363.023687,1.26
1764746363.029921,1.18
1764746363.0362911,1.13
1764746363.042567,1.25
1764746363.04861,1.18
1764746363.05497,1.22
1764746363.061156,1.22
1764746363.0675142,1.17
1764746363.073762,1.29
1764746363.080247,1.22
1764746363.0862012,1.23
1764746363.092504,1.47
1764746363.098826,1.82
1764746363.10497,2.61
1764746363.1113,2.84
1764746363.117515,2.37
1764746363.1239538,1.29
1764746363.130116,0.75
1764746363.13638,1.28
1764746363.142551,1.51
1764746363.148758,1.22
1764746363.1549828,1.27
1764746363.161165,1.35
1764746363.1674712,1.37
1764746363.173803,1.4
1764746363.1800802,1.27
1764746363.186286,1.34
1764746363.192574,1.5
1764746363.198753,1.42
1764746363.205109,1.46
1764746363.211194,1.48
1764746363.217394,1.42
1764746363.223855,1.48
1764746363.2299252,1.47
1764746363.236148,1.58
1764746363.242504,1.65
1764746363.24864,1.54
1764746363.254981,1.66
1764746363.2612128,1.67
1764746363.267544,1.64
1764746363.27374,1.77
1764746363.27993,1.78
1764746363.2860942,1.81
1764746363.2924,1.77
1764746363.298739,1.68
1764746363.304863,1.93
1764746363.3111098,1.88
1764746363.317451,1.75
1764746363.32429,1.85
1764746363.329938,1.77
1764746363.336174,1.81
1764746363.342477,1.81
1764746363.3486788,1.71
1764746363.354934,1.86
1764746363.3612,1.82
1764746363.367393,1.76
1764746363.37425,1.85
1764746363.37993,1.8
1764746363.3861818,1.84
1764746363.3925178,1.82
1764746363.3986838,1.74
1764746363.405189,1.94
1764746363.411087,1.87
1764746363.417397,1.77
1764746363.424152,1.87
1764746363.429903,1.79
1764746363.43618,1.78
1764746363.442548,1.81
1764746363.448634,1.74
1764746363.454944,1.84
1764746363.461144,1.76
1764746363.467411,1.73
1764746363.473695,2.0
1764746363.47992,1.96
1764746363.4861498,1.95
1764746363.4924748,2.07
1764746363.498595,2.1
1764746363.504975,2.2
1764746363.511115,2.09
1764746363.5173771,2.03
1764746363.524042,2.09
1764746363.5298429,1.86
1764746363.536124,1.82
1764746363.5424871,1.84
1764746363.548613,1.63
1764746363.55495,1.67
1764746363.56118,1.66
1764746363.567397,1.61
1764746363.5744278,1.7
1764746363.579818,1.69
1764746363.586088,1.67
1764746363.5923798,1.65
1764746363.598617,1.6
1764746363.6048698,1.75
1764746363.611063,1.7
1764746363.617392,1.98
1764746363.623844,2.88
1764746363.629878,3.14
1764746363.6448371,2.97
1764746363.645036,2.03
1764746363.695126,0.96
1764746363.696524,1.48
1764746363.7132,1.71
1764746363.730392,1.45
1764746363.737788,1.6
1764746363.738229,1.5
1764746363.738754,1.5
1764746363.739467,1.61
1764746363.739885,1.58
1764746363.7513468,1.73
1764746363.7525811,1.69
1764746363.774966,1.63
1764746363.775448,1.72
1764746363.776775,1.64
1764746363.7769651,1.78
1764746363.777279,1.75
1764746363.77758,1.53
1764746363.777859,1.85
1764746363.778134,1.8
1764746363.7788,1.64
1764746363.7791831,1.74
1764746363.7813802,1.64
1764746363.786414,1.71
1764746363.792835,1.71
1764746363.812792,1.54
1764746363.8132532,1.85
1764746363.813695,1.77
1764746363.817264,1.6
1764746363.823657,1.85
1764746363.8299031,1.68
1764746363.83617,1.68
1764746363.8426418,1.79
1764746363.848606,1.63
1764746363.855525,1.78
1764746363.861066,1.8
1764746363.868046,1.77
1764746363.8739998,1.87
1764746363.879904,1.66
1764746363.886267,1.7
1764746363.8924952,1.75
1764746363.898627,1.54
1764746363.9048588,1.79
1764746363.911125,1.72
1764746363.917309,1.57
1764746363.9236429,1.77
1764746363.929806,1.61
1764746363.936105,1.63
1764746363.942338,1.68
1764746363.948609,1.6
1764746363.954956,1.78
1764746363.961101,1.63
1764746363.967324,1.6
1764746363.97372,1.81
1764746363.979874,1.61
1764746363.986112,1.68
1764746363.992939,1.82
1764746363.998772,1.63
1764746364.0047512,1.84
1764746364.011071,1.87
1764746364.0173,1.73
1764746364.023714,1.7
1764746364.029738,1.64
1764746364.0360792,1.78
1764746364.0425332,1.6
1764746364.048564,1.33
1764746364.0549,1.55
1764746364.061049,1.4
1764746364.0672488,1.35
1764746364.073548,1.56
1764746364.079747,1.33
1764746364.086094,1.31
1764746364.092456,1.48
1764746364.098476,1.35
1764746364.104722,1.42
1764746364.111028,1.35
1764746364.117408,1.19
1764746364.123598,1.5
1764746364.129767,1.9
1764746364.135996,2.76
1764746364.142206,3.01
1764746364.148445,2.34
1764746364.1547751,1.3
1764746364.1609442,0.91
1764746364.167277,1.14
1764746364.173653,1.34
1764746364.179807,1.17
1764746364.186048,1.22
1764746364.1925068,1.31
1764746364.198454,1.23
1764746364.204666,1.28
1764746364.211123,1.28
1764746364.217383,1.39
1764746364.2235892,1.53
1764746364.229698,1.27
1764746364.236047,1.3
1764746364.242251,1.52
1764746364.248467,1.34
1764746364.2548108,1.44
1764746364.261031,1.41
1764746364.267443,1.27
1764746364.27364,1.35
1764746364.279893,1.42
1764746364.286175,1.53
1764746364.292265,1.45
1764746364.2987058,1.25
1764746364.304783,1.49
1764746364.311084,1.64
1764746364.317428,1.43
1764746364.323583,1.55
1764746364.3297138,1.43
1764746364.336111,1.39
1764746364.342301,1.63
1764746364.348597,1.5
1764746364.354826,1.38
1764746364.361001,1.35
1764746364.367289,1.36
1764746364.373648,1.44
1764746364.37991,1.42
1764746364.3860538,1.41
1764746364.392233,1.41
1764746364.39862,1.26
1764746364.404779,1.4
1764746364.410989,1.41
1764746364.4172878,1.31
1764746364.4236338,1.32
1764746364.429714,1.44
1764746364.435988,1.4
1764746364.442256,1.44
1764746364.448464,1.39
1764746364.454769,1.4
1764746364.460931,1.47
1764746364.467317,1.42
1764746364.47369,1.43
1764746364.479724,1.38
1764746364.485971,1.44
1764746364.4922829,1.44
1764746364.4984362,1.27
1764746364.504766,1.55
1764746364.510987,1.56
1764746364.517422,1.48
1764746364.523648,1.61
1764746364.5296588,1.47
1764746364.536045,1.58
1764746364.542445,1.75
1764746364.548814,1.49
1764746364.554803,1.37
1764746364.56108,1.33
1764746364.5673192,1.28
1764746364.573503,1.37
1764746364.579675,1.25
1764746364.5860631,1.3
1764746364.5921972,1.31
1764746364.598576,1.26
1764746364.605762,1.37
1764746364.610951,1.31
1764746364.6172118,1.21
1764746364.6239018,1.31
1764746364.6297758,1.32
1764746364.635972,1.39
1764746364.642197,1.87
1764746364.648428,2.79
1764746364.6546838,3.15
1764746364.660905,2.72
1764746364.667091,1.24
1764746364.673439,0.92
1764746364.679635,1.37
1764746364.6859012,1.52
1764746364.6920938,1.34
1764746364.698438,1.27
1764746364.707062,1.51
1764746364.7109592,1.42
1764746364.7170649,1.27
1764746364.723413,1.45
1764746364.729544,1.37
1764746364.73596,1.45
1764746364.742101,1.54
1764746364.748447,1.42
1764746364.754647,1.55
1764746364.760965,1.61
1764746364.767266,1.57
1764746364.773688,1.7
1764746364.779787,1.61
1764746364.786121,1.73
1764746364.79215,1.82
1764746364.798413,1.57
1764746364.8046248,1.74
1764746364.8112051,1.84
1764746364.817245,1.67
1764746364.823454,1.81
1764746364.8296971,1.82
1764746364.836141,1.85
1764746364.842186,1.91
1764746364.848497,1.66
1764746364.8546188,1.77
1764746364.8609128,1.82
1764746364.867311,1.73
1764746364.873496,1.79
1764746364.879732,1.75
1764746364.8859751,1.8
1764746364.8922932,1.8
1764746364.8983622,1.7
1764746364.904644,1.9
1764746364.910868,1.84
1764746364.917022,1.65
1764746364.9238248,1.85
1764746364.9296262,1.89
1764746364.936024,1.86
1764746364.942195,1.92
1764746364.948349,1.82
1764746364.954559,1.99
1764746364.960884,1.86
1764746364.9671192,1.8
1764746364.974273,2.05
1764746364.979618,1.92
1764746364.985874,1.89
1764746364.9921951,1.95
1764746364.998398,1.77
1764746365.004811,1.99
1764746365.010856,2.1
1764746365.0170538,1.97
1764746365.023516,2.11
1764746365.0295758,1.98
1764746365.035823,2.06
1764746365.042075,2.24
1764746365.048358,2.04
1764746365.054631,2.12
1764746365.060805,2.08
1764746365.06699,1.85
1764746365.073496,1.9
1764746365.079544,1.83
1764746365.08573,1.79
1764746365.092045,1.8
1764746365.0982609,1.71
1764746365.104568,1.8
1764746365.110782,1.73
1764746365.117093,1.59
1764746365.1234822,1.7
1764746365.129535,1.69
1764746365.135849,1.71
1764746365.142007,1.7
1764746365.148226,1.63
1764746365.15451,2.0
1764746365.1607769,2.67
1764746365.1669672,3.15
1764746365.173335,3.15
1764746365.1794848,2.43
1764746365.1857312,1.12
1764746365.192043,1.27
1764746365.1983109,1.65
1764746365.204555,1.67
1764746365.210751,1.48
1764746365.2170172,1.47
1764746365.223614,1.67
1764746365.229523,1.57
1764746365.2356951,1.56
1764746365.241993,1.7
1764746365.248218,1.63
1764746365.254535,1.69
1764746365.26063,1.69
1764746365.267054,1.66
1764746365.273476,1.78
1764746365.279475,1.69
1764746365.285695,1.74
1764746365.291977,1.79
1764746365.298233,1.64
1764746365.304582,1.75
1764746365.310674,1.76
1764746365.31698,1.67
1764746365.3233202,1.83
1764746365.329534,1.76
1764746365.3357198,1.74
1764746365.341946,1.74
1764746365.3482409,1.66
1764746365.354551,1.88
1764746365.360626,1.82
1764746365.366932,1.65
1764746365.3732202,1.83
1764746365.379452,1.72
1764746365.40489,1.75
1764746365.4280472,1.79
1764746365.4282298,1.62
1764746365.428365,1.74
1764746365.428489,1.79
1764746365.4286258,1.67
1764746365.428763,1.79
1764746365.444169,1.73
1764746365.467477,1.73
1764746365.467656,1.82
1764746365.4677792,1.67
1764746365.4819698,1.79
1764746365.482319,1.87
1764746365.482717,1.82
1764746365.48377,1.94
1764746365.484976,1.8
1764746365.48579,1.87
1764746365.492032,1.99
1764746365.498445,1.78
1764746365.517122,1.86
1764746365.517452,1.86
1764746365.517699,1.8
1764746365.523574,1.93
1764746365.5295591,1.8
1764746365.535857,1.79
1764746365.5422442,1.92
1764746365.548618,1.77
1764746365.5550332,1.93
1764746365.56078,2.0
1764746365.5671911,1.87
1764746365.5734332,1.96
1764746365.579537,2.03
1764746365.585935,2.17
1764746365.592056,2.15
1764746365.598403,1.91
1764746365.604518,2.09
1764746365.6107242,1.96
1764746365.6169448,1.68
1764746365.623172,1.87
1764746365.629398,1.77
1764746365.635693,1.65
1764746365.642286,1.8
1764746365.648114,1.68
1764746365.654486,1.78
1764746365.660657,1.76
1764746365.66688,1.65
1764746365.673255,1.82
1764746365.679468,1.69
1764746365.685653,1.66
1764746365.691905,1.9
1764746365.698118,2.13
1764746365.704406,2.97
1764746365.710689,3.15
1764746365.7169092,3.08
1764746365.723148,2.1
1764746365.729404,1.03
1764746365.7356522,1.47
1764746365.741879,1.99
1764746365.74809,1.63
1764746365.7544,1.56
1764746365.76057,1.65
1764746365.766839,1.6
1764746365.773173,1.71
1764746365.779365,1.59
1764746365.785645,1.59
1764746365.791975,1.71
1764746365.798114,1.61
1764746365.8044002,1.7
1764746365.8105931,1.7
1764746365.8169222,1.58
1764746365.8231602,1.74
1764746365.829354,1.7
1764746365.835619,1.79
1764746365.841852,1.86
1764746365.848125,1.66
1764746365.854343,1.82
1764746365.860599,1.84
1764746365.8669178,1.74
1764746365.873197,1.91
1764746365.879405,1.82
1764746365.885622,1.88
1764746365.8919082,1.93
1764746365.898079,1.77
1764746365.904356,1.86
1764746365.910686,1.86
1764746365.91689,1.69
1764746365.923218,1.85
1764746365.929334,1.74
1764746365.935597,1.68
1764746365.94182,1.76
1764746365.948045,1.55
1764746365.9543512,1.62
1764746365.960603,1.66
1764746365.9668632,1.52
1764746365.97323,1.62
1764746365.979342,1.51
1764746365.985582,1.46
1764746365.99178,1.47
1764746365.998146,1.33
1764746366.0043688,1.48
1764746366.01057,1.42
1764746366.0168588,1.26
1764746366.0230882,1.42
1764746366.029289,1.36
1764746366.035639,1.33
1764746366.04179,1.36
1764746366.0481012,1.21
1764746366.054541,1.26
1764746366.060512,1.24
1764746366.066849,1.11
1764746366.07328,1.24
1764746366.079309,1.11
1764746366.085581,1.05
1764746366.091837,1.18
1764746366.0981498,1.08
1764746366.1043,1.11
1764746366.1106508,1.12
1764746366.116822,1.15
1764746366.12302,1.35
1764746366.129344,1.2
1764746366.135595,1.23
1764746366.1417768,1.52
1764746366.1480389,1.38
1764746366.154302,1.29
1764746366.160515,1.32
1764746366.1669052,1.14
1764746366.173099,1.06
1764746366.179314,0.97
1764746366.185606,0.99
1764746366.191804,1.11
1764746366.198035,0.91
1764746366.204496,1.01
1764746366.210572,1.04
1764746366.216772,0.91
1764746366.223074,1.02
1764746366.229279,1.01
1764746366.2355158,1.01
1764746366.2417789,1.06
1764746366.2480588,0.94
1764746366.254315,1.34
1764746366.260525,2.13
1764746366.266761,2.46
1764746366.273066,2.44
1764746366.279271,1.52
1764746366.285484,0.46
1764746366.2918122,0.67
1764746366.298041,1.04
1764746366.3043132,1.13
1764746366.310459,1.01
1764746366.316847,0.84
1764746366.323032,1.1
1764746366.329324,1.05
1764746366.3354912,0.93
1764746366.34176,1.11
1764746366.348059,1.08
1764746366.354282,1.15
1764746366.3604548,1.17
1764746366.366787,1.0
1764746366.373112,1.18
1764746366.379321,1.13
1764746366.3854778,1.17
1764746366.391758,1.32
1764746366.398018,1.15
1764746366.404206,1.22
1764746366.410472,1.27
1764746366.416842,1.16
1764746366.423157,1.32
1764746366.429308,1.3
1764746366.435512,1.26
1764746366.4418209,1.33
1764746366.447986,1.23
1764746366.4542148,1.39
1764746366.460536,1.38
1764746366.466723,1.18
1764746366.473087,1.33
1764746366.4792662,1.35
1764746366.4854882,1.16
1764746366.491791,1.31
1764746366.497993,1.37
1764746366.504238,1.33
1764746366.510456,1.31
1764746366.516753,1.26
1764746366.523047,1.44
1764746366.529207,1.34
1764746366.535428,1.23
1764746366.541644,1.43
1764746366.5480242,1.36
1764746366.554215,1.37
1764746366.560461,1.38
1764746366.566664,1.28
1764746366.573141,1.42
1764746366.579249,1.41
1764746366.5854778,1.36
1764746366.591707,1.44
1764746366.5979688,1.4
1764746366.604206,1.52
1764746366.610458,1.51
1764746366.61669,1.32
1764746366.623094,1.53
1764746366.629245,1.5
1764746366.6354198,1.45
1764746366.641681,1.49
1764746366.647927,1.29
1764746366.654216,1.42
1764746366.660449,1.51
1764746366.666657,1.41
1764746366.673049,1.5
1764746366.679258,1.4
1764746366.685482,1.47
1764746366.691694,1.74
1764746366.6979609,1.59
1764746366.704195,1.47
1764746366.710465,1.52
1764746366.71684,1.43
1764746366.7234318,1.38
1764746366.729294,1.24
1764746366.735393,1.18
1764746366.741729,1.29
1764746366.747962,1.29
1764746366.754176,1.29
1764746366.760418,1.17
1764746366.766644,1.09
1764746366.7729752,1.3
1764746366.779148,1.24
1764746366.785415,1.15
1764746366.791605,1.33
1764746366.7979038,1.34
1764746366.804196,1.6
1764746366.810399,2.32
1764746366.816632,2.89
1764746366.822934,2.92
1764746366.8291972,2.19
1764746366.835424,1.08
1764746366.841645,1.15
1764746366.8479471,1.44
1764746366.85418,1.42
1764746366.860394,1.39
1764746366.8666828,1.37
1764746366.872948,1.52
1764746366.879148,1.45
1764746366.8853602,1.38
1764746366.9108322,1.5
1764746366.918476,1.52
1764746366.921831,1.58
1764746366.922511,1.62
1764746366.922794,1.57
1764746366.923152,1.6
1764746366.930202,1.59
1764746366.938318,1.6
1764746366.946586,1.75
1764746366.957163,1.7
1764746366.960843,1.73
1764746366.985749,1.81
1764746366.985978,1.73
1764746366.9861262,1.83
1764746366.98996,1.87
1764746366.990352,1.81
1764746366.994116,1.88
1764746367.000256,1.81
1764746367.004248,1.83
1764746367.010422,1.93
1764746367.0169852,1.88
1764746367.0237,1.95
1764746367.030774,1.88
1764746367.037077,1.82
1764746367.042028,1.92
1764746367.0485198,1.75
1764746367.054225,1.83
1764746367.060513,1.99
1764746367.066678,1.82
1764746367.073063,1.87
1764746367.079196,1.88
1764746367.085419,1.79
1764746367.0916412,1.83
1764746367.097985,1.8
1764746367.104168,1.9
1764746367.1104882,1.86
1764746367.116715,1.79
1764746367.122945,1.92
1764746367.1292229,1.85
1764746367.135335,1.75
1764746367.141632,1.94
1764746367.147871,1.92
1764746367.154162,1.89
1764746367.1602838,1.89
1764746367.166621,1.75
1764746367.173232,1.9
1764746367.1790771,1.82
1764746367.185326,1.71
1764746367.191608,1.86
1764746367.1979158,1.83
1764746367.204445,1.94
1764746367.210237,1.95
1764746367.2165172,1.79
1764746367.223096,2.15
1764746367.229138,2.19
1764746367.235318,1.98
1764746367.241547,2.06
1764746367.24783,1.96
1764746367.254047,1.85
1764746367.260339,1.83
1764746367.266549,1.68
1764746367.272853,1.76
1764746367.279135,1.72
1764746367.285366,1.62
1764746367.2915862,1.69
1764746367.297822,1.62
1764746367.304104,1.69
1764746367.310364,1.73
1764746367.3165498,1.6
1764746367.323013,1.64
1764746367.329092,1.64
1764746367.335305,1.63
1764746367.341589,2.14
1764746367.347743,2.86
1764746367.354115,3.14
1764746367.360221,2.89
1764746367.366494,1.75
1764746367.3728309,1.12
1764746367.37906,1.43
1764746367.385293,1.58
1764746367.391629,1.55
1764746367.397897,1.43
1764746367.404201,1.52
1764746367.4102552,1.58
1764746367.416533,1.44
1764746367.423035,1.53
1764746367.429095,1.56
1764746367.435392,1.54
1764746367.441738,1.61
1764746367.4478269,1.52
1764746367.4541771,1.63
1764746367.460341,1.74
1764746367.466536,1.54
1764746367.473145,1.64
1764746367.479154,1.73
1764746367.485336,1.71
1764746367.491681,1.78
1764746367.4977942,1.74
1764746367.504032,1.77
1764746367.5103402,1.77
1764746367.516543,1.68
1764746367.523088,1.79
1764746367.528972,1.77
1764746367.535438,1.68
1764746367.541535,1.78
1764746367.54777,1.66
1764746367.554034,1.62
1764746367.560359,1.75
1764746367.5665338,1.66
1764746367.573886,1.69
1764746367.579114,1.64
1764746367.58528,1.6
1764746367.591619,1.7
1764746367.597837,1.62
1764746367.604139,1.62
1764746367.610231,1.69
1764746367.616498,1.6
1764746367.622787,1.69
1764746367.629243,1.69
1764746367.635211,1.6
1764746367.641538,1.75
1764746367.647776,1.7
1764746367.6540868,1.64
1764746367.6602309,1.7
1764746367.6664808,1.65
1764746367.6728818,1.73
1764746367.678963,1.72
1764746367.685299,1.62
1764746367.69151,1.74
1764746367.6977742,1.72
1764746367.704127,1.7
1764746367.710227,1.72
1764746367.716513,1.66
1764746367.72292,1.76
1764746367.7289422,1.74
1764746367.7354062,1.73
1764746367.741475,1.9
1764746367.7478662,1.85
1764746367.754095,1.9
1764746367.760332,2.08
1764746367.7665422,2.0
1764746367.7729049,1.96
1764746367.778912,1.96
1764746367.7852008,1.86
1764746367.791531,1.81
1764746367.797704,1.66
1764746367.803997,1.64
1764746367.810262,1.65
1764746367.816424,1.56
1764746367.8229818,1.65
1764746367.829077,1.65
1764746367.8353531,1.59
1764746367.841585,1.66
1764746367.847916,1.6
1764746367.854046,1.61
1764746367.860249,1.66
1764746367.8664792,1.65
1764746367.872808,1.83
1764746367.878967,2.21
1764746367.8852391,2.95
1764746367.891414,3.16
1764746367.897734,3.06
1764746367.904384,1.87
1764746367.9101272,1.14
1764746367.916451,1.57
1764746367.92276,1.88
1764746367.929046,1.7
1764746367.935274,1.57
1764746367.94154,1.79
1764746367.947841,1.75
1764746367.954114,1.69
1764746367.960206,1.73
1764746367.966486,1.7
1764746367.972946,1.78
1764746367.978985,1.76
1764746367.985274,1.73
1764746367.99148,1.93
1764746367.997741,1.94
1764746368.003996,1.88
1764746368.0101178,1.93
1764746368.016521,1.91
1764746368.02327,2.03
1764746368.0290072,2.0
1764746368.035306,1.99
1764746368.041464,2.13
1764746368.047849,2.09
1764746368.0541482,2.07
1764746368.060153,2.23
1764746368.066428,2.23
1764746368.072735,2.23
1764746368.078922,2.18
1764746368.085384,2.22
1764746368.0914571,2.27
1764746368.0977752,2.2
1764746368.103967,2.25
1764746368.110186,2.24
1764746368.116514,2.11
1764746368.122786,2.18
1764746368.1291,2.17
1764746368.135189,2.11
1764746368.1414149,2.17
1764746368.147677,2.04
1764746368.15411,2.06
1764746368.160098,2.16
1764746368.166348,2.06
1764746368.172638,2.04
1764746368.179011,2.0
1764746368.185159,1.93
1764746368.1914618,2.04
1764746368.197829,1.97
1764746368.204066,1.91
1764746368.2101948,1.9
1764746368.2163289,1.78
1764746368.2228858,1.87
1764746368.228831,1.88
1764746368.235124,1.73
1764746368.241366,1.76
1764746368.247653,1.73
1764746368.2543218,1.73
1764746368.260038,1.8
1764746368.266398,1.72
1764746368.272644,1.74
1764746368.278996,1.81
1764746368.285259,1.88
1764746368.291382,1.92
1764746368.2976582,1.7
1764746368.303883,1.7
1764746368.310107,1.71
1764746368.316404,1.42
1764746368.3227,1.42
1764746368.3288388,1.49
1764746368.335178,1.32
1764746368.341311,1.3
1764746368.347602,1.28
1764746368.354091,1.25
1764746368.3600771,1.21
1764746368.366355,1.06
1764746368.372597,1.18
1764746368.378885,1.16
1764746368.385182,0.99
1764746368.391387,1.02
1764746368.3976068,1.05
1764746368.404248,1.41
1764746368.410051,2.14
1764746368.416367,2.25
1764746368.422569,2.08
1764746368.428888,1.02
1764746368.435219,0.11
1764746368.441303,0.54
1764746368.4475782,0.74
1764746368.453797,0.53
1764746368.460117,0.49
1764746368.466272,0.49
1764746368.47263,0.58
1764746368.478961,0.46
1764746368.485054,0.47
1764746368.49153,0.64
1764746368.497804,0.42
1764746368.503835,0.32
1764746368.5100129,0.53
1764746368.5163531,0.58
1764746368.522752,0.49
1764746368.528893,0.39
1764746368.535066,0.45
1764746368.541379,0.58
1764746368.547667,0.47
1764746368.55407,0.39
1764746368.560089,0.46
1764746368.5843132,0.51
1764746368.616108,0.52
1764746368.622626,0.49
1764746368.623308,0.49
1764746368.623438,0.52
1764746368.623549,0.51
1764746368.626967,0.58
1764746368.627585,0.59
1764746368.630392,0.46
1764746368.630522,0.51
1764746368.630614,0.52
1764746368.635239,0.43
1764746368.641652,0.49
1764746368.647535,0.46
1764746368.654001,0.43
1764746368.6604302,0.5
1764746368.6662982,0.43
1764746368.6725729,0.44
1764746368.67909,0.43
1764746368.685452,0.36
1764746368.6914592,0.43
1764746368.697828,0.45
1764746368.703948,0.45
1764746368.710238,0.45
1764746368.716458,0.4
1764746368.722708,0.49
1764746368.728939,0.55
1764746368.7353349,0.48
1764746368.741616,0.55
1764746368.74854,0.52
1764746368.765562,0.45
1764746368.766186,0.54
1764746368.766527,0.55
1764746368.7774851,0.51
1764746368.8073869,0.56
1764746368.80805,0.63
1764746368.808452,0.7
1764746368.808699,0.65
1764746368.809067,0.74
1764746368.810007,0.91
1764746368.816297,0.83
1764746368.822622,0.75
1764746368.82896,0.88
1764746368.834989,0.79
1764746368.841345,0.68
1764746368.847521,0.65
1764746368.853755,0.63
1764746368.860016,0.68
1764746368.866307,0.67
1764746368.872517,0.78
1764746368.878798,0.8
1764746368.886024,0.72
1764746368.891212,0.87
1764746368.897562,0.93
1764746368.904002,0.87
1764746368.910003,0.88
1764746368.916229,0.96
1764746368.923329,1.22
1764746368.928771,1.77
1764746368.93495,2.44
1764746368.941184,2.52
1764746368.947512,2.0
1764746368.954828,0.83
1764746368.95998,0.52
1764746368.966188,0.93
1764746368.97271,1.08
1764746368.978817,0.94
1764746368.985014,0.8
1764746368.991265,1.04
1764746368.997501,1.1
1764746369.003874,0.96
1764746369.009981,1.07
1764746369.0162518,1.15
1764746369.02259,1.11
1764746369.0286798,1.09
1764746369.034963,1.09
1764746369.041249,1.2
1764746369.047486,1.22
1764746369.053756,1.25
1764746369.059893,1.27
1764746369.066271,1.22
1764746369.0727592,1.37
1764746369.078731,1.48
1764746369.084919,1.47
1764746369.0911071,1.47
1764746369.097405,1.67
1764746369.1046069,1.77
1764746369.109965,1.68
1764746369.1163142,1.54
1764746369.122516,1.82
1764746369.12864,1.97
1764746369.13491,1.84
1764746369.141155,1.89
1764746369.147367,1.83
1764746369.153782,1.74
1764746369.159894,2.02
1764746369.166191,2.04
1764746369.17254,1.96
1764746369.178751,1.93
1764746369.184881,1.91
1764746369.191211,2.05
1764746369.197438,2.02
1764746369.203885,2.02
1764746369.2099462,2.06
1764746369.216299,1.94
1764746369.2224529,2.05
1764746369.228736,2.11
1764746369.234945,2.01
1764746369.241209,2.11
1764746369.247394,2.12
1764746369.253936,2.14
1764746369.259941,2.06
1764746369.266339,1.98
1764746369.272751,2.06
1764746369.278741,2.04
1764746369.284957,2.06
1764746369.291404,2.1
1764746369.297486,2.01
1764746369.304081,2.04
1764746369.310092,2.19
1764746369.316282,2.13
1764746369.322577,2.24
1764746369.328766,2.36
1764746369.3353322,2.33
1764746369.341231,2.23
1764746369.347429,2.22
1764746369.3538072,2.22
1764746369.359987,2.07
1764746369.366114,1.98
1764746369.37242,2.09
1764746369.378688,2.09
1764746369.384874,2.02
1764746369.391213,2.11
1764746369.397406,2.1
1764746369.403876,2.28
1764746369.409906,2.35
1764746369.416192,2.15
1764746369.422428,2.29
1764746369.428761,2.21
1764746369.434983,2.16
1764746369.441178,2.57
1764746369.447414,3.03
1764746369.4538372,3.17
1764746369.459894,3.17
1764746369.466072,3.17
1764746369.472429,3.16
1764746369.478699,2.39
1764746369.4848828,1.69
1764746369.4911811,2.22
1764746369.4973922,2.29
1764746369.503715,2.21
1764746369.509884,2.31
1764746369.516174,2.17
1764746369.522434,2.25
1764746369.528658,2.11
1764746369.534948,2.09
1764746369.54112,2.39
1764746369.547339,2.24
1764746369.55382,2.13
1764746369.559874,2.44
1764746369.56616,2.34
1764746369.572594,2.3
1764746369.57873,2.31
1764746369.584878,2.33
1764746369.591146,2.55
1764746369.5973382,2.23
1764746369.6035898,2.44
1764746369.609866,2.51
1764746369.61619,2.45
1764746369.622412,2.71
1764746369.62864,2.59
1764746369.634913,2.4
1764746369.641118,2.54
1764746369.6473448,2.5
1764746369.6543438,2.37
1764746369.659917,2.4
1764746369.666195,2.5
1764746369.6724942,2.48
1764746369.678608,2.5
1764746369.685249,2.54
1764746369.691137,2.63
1764746369.697346,2.26
1764746369.704727,2.33
1764746369.710159,2.61
1764746369.716253,2.53
1764746369.722409,2.48
1764746369.728541,2.32
1764746369.735084,2.18
1764746369.741069,2.33
1764746369.747391,2.22
1764746369.753723,2.32
1764746369.759834,2.39
1764746369.766038,2.05
1764746369.77239,2.22
1764746369.778581,2.28
1764746369.7848508,2.11
1764746369.7910771,2.29
1764746369.797276,2.17
1764746369.803627,2.01
1764746369.809847,2.21
1764746369.815988,2.17
1764746369.822392,2.24
1764746369.828568,2.12
1764746369.8348138,2.08
1764746369.84102,2.47
1764746369.847511,2.29
1764746369.8539982,2.13
1764746369.859987,2.23
1764746369.866084,2.09
1764746369.872598,2.32
1764746369.878564,2.05
1764746369.8851671,1.67
1764746369.89108,1.73
1764746369.897488,1.76
1764746369.9036758,1.87
1764746369.91,1.9
1764746369.916131,1.61
1764746369.92242,1.56
1764746369.928588,1.65
1764746369.9349692,1.63
1764746369.9410582,1.69
1764746369.947372,1.45
1764746369.953699,1.43
1764746369.960108,1.73
1764746369.966166,2.16
1764746369.972335,3.09
1764746369.978572,3.11
1764746369.984863,2.61
1764746369.991019,1.66
1764746369.9972842,0.85
1764746370.003705,1.33
1764746370.0097542,1.59
1764746370.01595,1.17
1764746370.022358,1.46
1764746370.0284932,1.47
1764746370.034761,1.09
1764746370.041026,1.54
1764746370.047167,1.49
1764746370.053466,1.27
1764746370.059819,1.34
1764746370.066044,1.26
1764746370.072247,1.43
1764746370.0784829,1.42
1764746370.084685,1.21
1764746370.091082,1.36
1764746370.097273,1.52
1764746370.1035352,1.43
1764746370.109652,1.43
1764746370.1159208,1.29
1764746370.122366,1.41
1764746370.1283998,1.45
1764746370.134763,1.53
1764746370.140948,1.56
1764746370.1471791,1.41
1764746370.153431,1.43
1764746370.1597052,1.47
1764746370.166006,1.37
1764746370.172246,1.54
1764746370.178421,1.46
1764746370.184811,1.29
1764746370.191002,1.53
1764746370.197218,1.39
1764746370.203496,1.24
1764746370.2096908,1.42
1764746370.21591,1.36
1764746370.222313,1.32
1764746370.228485,1.17
1764746370.234804,1.2
1764746370.240891,1.33
1764746370.247134,1.21
1764746370.2535949,1.19
1764746370.259625,1.26
1764746370.266012,1.35
1764746370.272168,1.21
1764746370.2785122,1.15
1764746370.284752,1.24
1764746370.290936,1.26
1764746370.297177,1.14
1764746370.30345,1.16
1764746370.309639,1.23
1764746370.315989,1.09
1764746370.32222,1.23
1764746370.328472,1.17
1764746370.334709,0.99
1764746370.34172,1.26
1764746370.359415,1.27
1764746370.3623848,1.15
1764746370.364379,1.24
1764746370.3786922,1.33
1764746370.378864,1.38
1764746370.379013,1.2
1764746370.3885372,1.12
1764746370.391087,1.3
1764746370.398592,0.93
1764746370.406661,0.81
1764746370.409663,1.11
1764746370.416899,0.98
1764746370.4222238,0.8
1764746370.428403,0.74
1764746370.434646,0.87
1764746370.440979,1.02
1764746370.447191,0.86
1764746370.453572,0.76
1764746370.459818,0.89
1764746370.466084,0.89
1764746370.472395,0.96
1764746370.478602,0.98
1764746370.484937,1.39
1764746370.491132,2.3
1764746370.497378,2.59
1764746370.503558,2.17
1764746370.509791,1.04
1764746370.515925,0.32
1764746370.5222158,0.8
1764746370.5284128,0.88
1764746370.534904,0.67
1764746370.541883,0.91
1764746370.5472488,0.86
1764746370.55344,0.85
1764746370.560254,0.92
1764746370.565908,0.83
1764746370.57224,0.99
1764746370.578444,0.88
1764746370.584658,0.96
1764746370.59094,1.07
1764746370.597218,0.97
1764746370.603515,0.98
1764746370.609631,1.11
1764746370.615839,0.99
1764746370.622051,1.11
1764746370.6283069,1.13
1764746370.634616,1.01
1764746370.640851,1.26
1764746370.6470468,1.28
1764746370.6553972,1.24
1764746370.65959,1.3
1764746370.665778,1.36
1764746370.672201,1.57
1764746370.678431,1.39
1764746370.684614,1.29
1764746370.690855,1.54
1764746370.69707,1.46
1764746370.703555,1.43
1764746370.709635,1.56
1764746370.715921,1.31
1764746370.722072,1.37
1764746370.728529,1.58
1764746370.7347798,1.44
1764746370.740907,1.46
1764746370.747135,1.35
1764746370.7535229,1.48
1764746370.759608,1.63
1764746370.766,1.45
1764746370.77213,1.54
1764746370.7783942,1.62
1764746370.784812,1.52
1764746370.790837,1.76
1764746370.797132,1.67
1764746370.803371,1.67
1764746370.8096051,1.73
1764746370.816155,1.6
1764746370.822121,1.9
1764746370.828392,1.85
1764746370.834784,1.63
1764746370.840838,1.85
1764746370.847092,1.78
1764746370.853945,1.85
1764746370.859756,2.06
1764746370.865779,1.91
1764746370.8721092,1.95
1764746370.878455,2.04
1764746370.885212,2.12
1764746370.890829,2.33
1764746370.8971431,1.99
1764746370.904086,2.03
1764746370.9097018,2.38
1764746370.915939,1.96
1764746370.922222,1.95
1764746370.928412,2.03
1764746370.9351308,1.86
1764746370.94083,1.99
1764746370.947103,1.81
1764746370.953355,1.91
1764746370.9596312,2.13
1764746370.965885,1.9
1764746370.9723,2.01
1764746370.978709,1.95
1764746370.984672,1.88
1764746370.99085,2.12
1764746370.997112,1.94
1764746371.003535,2.29
1764746371.0097148,3.03
1764746371.0158331,3.16
1764746371.0225122,3.17
1764746371.02838,3.16
1764746371.0361202,2.32
1764746371.040865,1.51
1764746371.0470269,1.77
1764746371.053598,2.18
1764746371.059681,2.15
1764746371.06582,1.77
1764746371.0721412,2.03
1764746371.078599,2.1
1764746371.084949,1.82
1764746371.090765,2.06
1764746371.097118,2.05
1764746371.103797,2.05
1764746371.1095629,2.12
1764746371.115785,1.92
1764746371.1221,2.12
1764746371.12868,2.15
1764746371.134688,2.01
1764746371.141082,2.2
1764746371.147083,2.02
1764746371.15351,2.11
1764746371.15957,2.27
1764746371.165864,2.01
1764746371.172101,2.24
1764746371.178716,2.29
1764746371.184599,2.12
1764746371.190773,2.32
1764746371.198155,2.21
1764746371.203341,2.22
1764746371.209624,2.3
1764746371.215808,1.96
1764746371.2221282,2.17
1764746371.228229,2.15
1764746371.234711,1.91
1764746371.24079,2.09
1764746371.247057,1.9
1764746371.253262,1.89
1764746371.2595022,1.92
1764746371.2658172,1.64
1764746371.272071,1.86
1764746371.278306,1.88
1764746371.2844338,1.58
1764746371.290837,1.8
1764746371.2970262,1.75
1764746371.3040798,1.73
1764746371.3094678,1.77
1764746371.3157,1.56
1764746371.3219898,1.78
1764746371.328162,1.77
1764746371.3349462,1.6
1764746371.340658,1.75
1764746371.346907,1.56
1764746371.353371,1.62
1764746371.3594382,1.73
1764746371.365657,1.47
1764746371.371969,1.57
1764746371.3782709,1.57
1764746371.384946,1.44
1764746371.390732,1.64
1764746371.39705,1.54
1764746371.403318,1.58
1764746371.409415,1.74
1764746371.415615,1.54
1764746371.421995,1.77
1764746371.4282172,1.87
1764746371.434561,1.63
1764746371.440747,1.75
1764746371.446946,1.56
1764746371.4533062,1.44
1764746371.459433,1.48
1764746371.4656498,1.25
1764746371.471895,1.38
1764746371.478157,1.41
1764746371.484475,1.27
1764746371.490689,1.38
1764746371.496948,1.18
1764746371.503159,1.34
1764746371.509412,1.52
1764746371.515845,1.24
1764746371.5220249,1.3
1764746371.5281868,1.28
1764746371.5344892,1.2
1764746371.540641,1.72
1764746371.546965,2.24
1764746371.553359,2.8
1764746371.5594492,2.91
1764746371.565672,1.88
1764746371.571976,0.8
1764746371.578186,0.91
1764746371.5844412,1.19
1764746371.590867,1.36
1764746371.596993,1.15
1764746371.603342,1.15
1764746371.609421,1.29
1764746371.615792,1.11
1764746371.621953,1.24
1764746371.628159,1.27
1764746371.634372,1.16
1764746371.640693,1.35
1764746371.646943,1.23
1764746371.653142,1.16
1764746371.65936,1.31
1764746371.665882,1.26
1764746371.671872,1.38
1764746371.678156,1.33
1764746371.684403,1.2
1764746371.690642,1.4
1764746371.696972,1.32
1764746371.703197,1.33
1764746371.709339,1.43
1764746371.715853,1.27
1764746371.721902,1.39
1764746371.7281249,1.44
1764746371.734525,1.37
1764746371.740646,1.5
1764746371.746899,1.36
1764746371.753057,1.33
1764746371.75935,1.46
1764746371.7655349,1.32
1764746371.77189,1.38
1764746371.778122,1.37
1764746371.784451,1.29
1764746371.7906592,1.45
1764746371.796997,1.32
1764746371.803245,1.28
1764746371.809385,1.36
1764746371.8156328,1.27
1764746371.821962,1.42
1764746371.828117,1.43
1764746371.834473,1.29
1764746371.840716,1.46
1764746371.846921,1.36
1764746371.853301,1.35
1764746371.859498,1.49
1764746371.865688,1.34
1764746371.871983,1.41
1764746371.878072,1.5
1764746371.884407,1.39
1764746371.890602,1.52
1764746371.896953,1.38
1764746371.903146,1.4
1764746371.90931,1.62
1764746371.915563,1.44
1764746371.9218528,1.48
1764746371.928067,1.52
1764746371.934321,1.39
1764746371.940574,1.57
1764746371.9467928,1.57
1764746371.95304,1.62
1764746371.95926,1.66
1764746371.9655192,1.57
1764746371.971787,1.82
1764746371.978067,1.82
1764746371.98447,1.57
1764746371.9905431,1.72
1764746371.9968472,1.62
1764746372.003086,1.38
1764746372.0092869,1.41
1764746372.015592,1.32
1764746372.021874,1.36
1764746372.028099,1.28
1764746372.03434,1.16
1764746372.040558,1.3
1764746372.0468931,1.22
1764746372.053065,1.21
1764746372.059295,1.32
1764746372.065572,1.17
1764746372.071797,1.18
1764746372.078226,1.22
1764746372.084667,1.26
1764746372.091149,1.7
1764746372.1021628,2.36
1764746372.1031308,2.67
1764746372.120664,2.56
1764746372.127143,1.46
1764746372.1274722,0.73
1764746372.136487,1.12
1764746372.136906,1.29
1764746372.145607,1.29
1764746372.1553311,1.16
1764746372.156366,1.24
1764746372.171293,1.4
1764746372.1738272,1.28
1764746372.175671,1.35
1764746372.190356,1.43
1764746372.190825,1.37
1764746372.191209,1.52
1764746372.197077,1.41
1764746372.203226,1.41
1764746372.209435,1.55
1764746372.215651,1.44
1764746372.221879,1.59
1764746372.2281542,1.66
1764746372.2344031,1.51
1764746372.241463,1.71
1764746372.246805,1.66
1764746372.252994,1.62
1764746372.259273,1.78
1764746372.265721,1.61
1764746372.272227,1.73
1764746372.278024,1.8
1764746372.284363,1.6
1764746372.2906492,1.74
1764746372.296795,1.74
1764746372.302998,1.66
1764746372.309304,1.73
1764746372.315642,1.64
1764746372.321831,1.78
1764746372.3279948,1.76
1764746372.3343208,1.58
1764746372.3405929,1.75
1764746372.3467698,1.68
1764746372.353008,1.67
1764746372.359447,1.77
1764746372.365534,1.67
1764746372.371783,1.81
1764746372.378082,1.76
1764746372.3844202,1.64
1764746372.39051,1.85
1764746372.396727,1.76
1764746372.403073,1.67
1764746372.409198,1.86
1764746372.415491,1.72
1764746372.421718,1.75
1764746372.428118,1.81
1764746372.434641,1.68
1764746372.440552,1.82
1764746372.446728,1.78
1764746372.45298,1.83
1764746372.459272,1.9
1764746372.465517,1.7
1764746372.4717162,2.0
1764746372.477986,2.09
1764746372.484204,1.87
1764746372.490423,2.03
1764746372.496772,2.11
1764746372.5030851,2.08
1764746372.50927,2.09
1764746372.51557,2.16
1764746372.521926,2.46
1764746372.52799,2.34
1764746372.534345,2.05
