timestamp,ecg_value
1764746312.540732,0.89
1764746312.54716,1.02
1764746312.5533109,1.0
1764746312.559534,0.95
1764746312.565909,1.09
1764746312.5720608,0.93
1764746312.5783548,0.96
1764746312.584518,1.06
1764746312.590797,0.89
1764746312.597016,1.04
1764746312.603213,1.0
1764746312.610502,0.89
1764746312.6157792,0.99
1764746312.622012,0.89
1764746312.628473,0.92
1764746312.634559,1.02
1764746312.6407108,0.9
1764746312.646993,1.04
1764746312.653335,0.99
1764746312.659636,0.88
1764746312.665792,1.04
1764746312.672024,0.92
1764746312.678355,0.93
1764746312.684494,1.05
1764746312.690701,0.76
1764746312.6969888,0.84
1764746312.7031722,0.86
1764746312.709627,0.8
1764746312.7156758,0.92
1764746312.721955,0.82
1764746312.728309,0.84
1764746312.734428,0.82
1764746312.740788,0.78
1764746312.747023,1.01
1764746312.7534,0.98
1764746312.759802,0.86
1764746312.76587,0.97
1764746312.771997,0.79
1764746312.778323,0.87
1764746312.784485,1.0
1764746312.790685,0.83
1764746312.7969449,0.9
1764746312.803182,0.92
1764746312.809772,0.97
1764746312.815605,1.1
1764746312.821934,0.95
1764746312.828193,1.11
1764746312.834399,1.29
1764746312.840734,1.11
1764746312.846913,1.19
1764746312.853129,1.22
1764746312.859494,1.11
1764746312.865633,0.9
1764746312.871875,0.65
1764746312.878112,0.92
1764746312.8844008,0.89
1764746312.89072,0.5
1764746312.896929,0.72
1764746312.903214,0.84
1764746312.9094532,0.72
1764746312.915627,0.8
1764746312.9219189,0.77
1764746312.928244,0.89
1764746312.934382,0.82
1764746312.9406369,0.61
1764746312.946902,1.02
1764746312.953204,1.35
1764746312.959428,1.92
1764746312.965621,2.54
1764746312.971948,2.34
1764746312.978575,1.41
1764746312.984465,0.41
1764746312.9906209,0.55
1764746312.996887,1.15
1764746313.003179,1.0
1764746313.0094469,0.8
1764746313.015563,1.0
1764746313.021912,0.95
1764746313.028456,0.93
1764746313.03452,0.97
1764746313.040586,0.95
1764746313.0468538,1.14
1764746313.053162,0.99
1764746313.059364,0.98
1764746313.065773,1.22
1764746313.071936,1.08
1764746313.078264,1.11
1764746313.084479,1.12
1764746313.090624,1.11
1764746313.097046,1.21
1764746313.103157,1.19
1764746313.109511,1.24
1764746313.115572,1.39
1764746313.1219578,1.24
1764746313.128254,1.25
1764746313.13443,1.39
1764746313.140598,1.39
1764746313.14702,1.52
1764746313.1531148,1.37
1764746313.159733,1.37
1764746313.165748,1.53
1764746313.171878,1.35
1764746313.178169,1.45
1764746313.1843982,1.49
1764746313.19068,1.36
1764746313.19691,1.52
1764746313.203211,1.4
1764746313.209588,1.3
1764746313.215622,1.49
1764746313.2218082,1.41
1764746313.228116,1.4
1764746313.23431,1.37
1764746313.240663,1.28
1764746313.246788,1.51
1764746313.253022,1.47
1764746313.259469,1.35
1764746313.265567,1.54
1764746313.277299,1.57
1764746313.3269088,1.48
1764746313.333497,1.52
1764746313.3338208,1.46
1764746313.333914,1.64
1764746313.334023,1.44
1764746313.33409,1.35
1764746313.334157,1.41
1764746313.3358011,1.41
1764746313.335912,1.48
1764746313.335989,1.47
1764746313.340697,1.31
1764746313.346823,1.33
1764746313.353028,1.35
1764746313.3593311,1.38
1764746313.365944,1.5
1764746313.371974,1.43
1764746313.378207,1.64
1764746313.384355,1.77
1764746313.390699,1.52
1764746313.397024,1.51
1764746313.403774,1.39
1764746313.4094222,1.21
1764746313.4157388,1.32
1764746313.421917,1.17
1764746313.42862,1.19
1764746313.4347389,1.21
1764746313.44077,1.05
1764746313.4468732,1.23
1764746313.4531798,1.26
1764746313.459353,1.13
1764746313.465712,1.33
1764746313.471818,1.16
1764746313.4783292,1.07
1764746313.4843788,1.29
1764746313.490634,1.33
1764746313.49685,1.63
1764746313.5032551,2.22
1764746313.509598,2.81
1764746313.515521,2.91
1764746313.521785,1.86
1764746313.528144,0.76
1764746313.534362,1.2
1764746313.540496,1.31
1764746313.546805,1.26
1764746313.5529358,1.21
1764746313.5593631,1.21
1764746313.565622,1.32
1764746313.5717602,1.13
1764746313.5781069,1.26
1764746313.5842812,1.43
1764746313.590508,1.22
1764746313.596748,1.32
1764746313.603012,1.49
1764746313.6096902,1.58
1764746313.615534,1.37
1764746313.621863,1.18
1764746313.62818,1.43
1764746313.634239,1.58
1764746313.640524,1.51
1764746313.6467211,1.55
1764746313.653004,1.71
1764746313.659332,1.59
1764746313.665536,1.68
1764746313.671694,1.84
1764746313.6785111,1.91
1764746313.684576,1.87
1764746313.690536,1.71
1764746313.6967769,1.96
1764746313.703028,2.18
1764746313.709315,1.92
1764746313.715498,1.99
1764746313.721706,1.96
1764746313.728019,2.13
1764746313.7342908,2.34
1764746313.740488,2.18
1764746313.746716,2.38
1764746313.752932,2.37
1764746313.759568,2.3
1764746313.765579,2.48
1764746313.771777,2.63
1764746313.778208,2.5
1764746313.784557,2.2
1764746313.790653,2.02
1764746313.796844,2.36
1764746313.80309,2.34
1764746313.810048,2.13
1764746313.815579,2.3
1764746313.8217971,2.38
1764746313.828135,2.72
1764746313.834392,2.3
1764746313.840616,1.94
1764746313.846768,1.94
1764746313.8530078,1.68
1764746313.859327,1.58
1764746313.865559,1.75
1764746313.871832,1.6
1764746313.878169,1.65
1764746313.8842392,1.71
1764746313.890537,1.7
1764746313.8967612,1.85
1764746313.903091,1.55
1764746313.909247,1.85
1764746313.915526,2.49
1764746313.921678,1.69
1764746313.92798,1.62
1764746313.9342148,2.0
1764746313.9405172,1.96
1764746313.946778,1.35
1764746313.9529212,1.4
1764746313.959536,1.78
1764746313.965408,1.65
1764746313.9718,1.11
1764746313.977965,1.34
1764746313.98434,1.47
1764746313.990594,1.25
1764746313.996625,1.45
1764746314.003181,1.1
1764746314.0093389,1.03
1764746314.015436,1.66
1764746314.02175,1.46
1764746314.028116,1.2
1764746314.034212,1.23
1764746314.04061,1.3
1764746314.046834,1.6
1764746314.052984,1.1
1764746314.0597708,2.09
1764746314.0654578,3.15
1764746314.071852,2.84
1764746314.078239,1.77
1764746314.084272,0.71
1764746314.090543,0.86
1764746314.0967622,1.7
1764746314.103016,2.02
1764746314.1098838,0.97
1764746314.115413,0.12
1764746314.121696,1.03
1764746314.127924,1.61
1764746314.134238,1.17
1764746314.140378,0.77
1764746314.14673,1.31
1764746314.153237,1.3
1764746314.159302,1.21
1764746314.165398,1.47
1764746314.171693,1.19
1764746314.178057,1.53
1764746314.184112,1.7
1764746314.190428,0.69
1764746314.196672,0.71
1764746314.2029572,1.47
1764746314.210217,1.33
1764746314.215371,1.18
1764746314.2217238,1.14
1764746314.2279942,1.46
1764746314.234169,1.3
1764746314.240469,1.14
1764746314.2466612,1.44
1764746314.252818,1.1
1764746314.259613,1.23
1764746314.265331,1.5
1764746314.271856,0.57
1764746314.277935,0.83
1764746314.2841642,1.42
1764746314.290398,1.05
1764746314.296569,0.95
1764746314.302891,1.0
1764746314.309712,1.18
1764746314.315298,1.25
1764746314.321546,0.96
1764746314.327868,1.14
1764746314.334027,1.39
1764746314.3403158,1.08
1764746314.3466308,1.12
1764746314.352895,1.31
1764746314.359308,1.04
1764746314.365283,0.93
1764746314.3716,1.12
1764746314.377854,1.82
1764746314.384087,1.32
1764746314.390286,0.6
1764746314.396554,1.04
1764746314.4028502,1.5
1764746314.40924,0.87
1764746314.415402,0.96
1764746314.421538,1.1
1764746314.427832,1.02
1764746314.434083,1.15
1764746314.4404218,1.13
1764746314.446723,1.13
1764746314.4528582,1.07
1764746314.459425,1.01
1764746314.465319,1.27
1764746314.471564,1.22
1764746314.47782,1.44
1764746314.484183,1.29
1764746314.490377,0.41
1764746314.496599,0.96
1764746314.502782,1.48
1764746314.5091588,1.15
1764746314.515339,1.25
1764746314.5215302,1.09
1764746314.5278158,0.97
1764746314.534059,0.9
1764746314.540437,0.87
1764746314.546475,0.91
1764746314.552861,0.78
1764746314.559514,1.09
1764746314.5653708,1.06
1764746314.5714948,0.69
1764746314.577771,0.88
1764746314.584079,0.91
1764746314.59034,0.71
1764746314.596566,0.88
1764746314.6028469,0.84
1764746314.609403,0.68
1764746314.615236,1.06
1764746314.621585,1.55
1764746314.627839,2.4
1764746314.634169,2.72
1764746314.640374,2.2
1764746314.64657,0.84
1764746314.6528718,0.14
1764746314.659177,0.83
1764746314.66526,1.27
1764746314.671531,0.8
1764746314.6777458,0.76
1764746314.684009,0.99
1764746314.690348,0.98
1764746314.696524,1.17
1764746314.702772,0.84
1764746314.7092988,1.0
1764746314.715298,1.25
1764746314.7214878,0.76
1764746314.727812,1.06
1764746314.73403,1.34
1764746314.740319,0.82
1764746314.746508,1.01
1764746314.7528052,1.21
1764746314.75916,1.14
1764746314.7653,1.32
1764746314.771565,1.27
1764746314.777746,1.18
1764746314.783999,1.5
1764746314.790299,1.4
1764746314.7966878,1.37
1764746314.802733,1.17
1764746314.809276,1.08
1764746314.815289,1.35
1764746314.821582,1.17
1764746314.827731,1.21
1764746314.834094,1.41
1764746314.840349,1.44
1764746314.8465998,1.33
1764746314.852745,1.2
1764746314.859458,1.46
1764746314.865315,1.57
1764746314.871517,1.38
1764746314.877739,1.36
1764746314.883989,1.69
1764746314.89028,1.51
1764746314.896562,1.37
1764746314.902732,1.38
1764746314.909306,1.52
1764746314.915362,1.55
1764746314.9214962,1.53
1764746314.927785,1.63
1764746314.933999,1.51
1764746314.940306,1.52
1764746314.946663,1.85
1764746314.95276,1.79
1764746314.962875,1.5
1764746314.966474,1.58
1764746314.98318,1.82
1764746315.01608,1.76
1764746315.0170891,1.95
1764746315.017218,1.66
1764746315.017337,1.76
1764746315.017458,1.8
1764746315.017577,1.66
1764746315.017698,2.01
1764746315.048036,2.01
1764746315.053706,1.84
1764746315.054712,1.73
1764746315.05494,1.92
1764746315.055211,2.24
1764746315.056112,2.15
1764746315.059045,2.01
1764746315.065303,2.19
1764746315.071697,2.39
1764746315.077904,2.38
1764746315.087477,2.23
1764746315.094389,2.28
1764746315.096592,2.48
1764746315.103515,2.02
1764746315.111666,2.01
1764746315.116013,2.49
1764746315.121515,2.17
1764746315.127796,1.95
1764746315.1340349,2.29
1764746315.14049,2.3
1764746315.146595,2.48
1764746315.152729,2.23
1764746315.1594088,2.1
1764746315.1652968,2.55
1764746315.1715682,2.39
1764746315.1778328,2.13
1764746315.184015,2.41
1764746315.1902962,2.7
1764746315.19645,3.16
1764746315.202731,3.17
1764746315.209053,3.17
1764746315.215144,3.17
1764746315.221472,3.07
1764746315.227694,2.19
1764746315.233857,1.95
1764746315.240154,2.46
1764746315.246387,2.81
1764746315.25266,2.35
1764746315.258906,2.17
1764746315.265175,2.77
1764746315.2714722,2.38
1764746315.277737,2.35
1764746315.2838678,2.56
1764746315.290261,2.39
1764746315.296542,2.51
1764746315.3026712,2.5
1764746315.30905,2.45
1764746315.3153138,2.65
1764746315.321483,2.52
1764746315.327648,2.45
1764746315.3338869,2.7
1764746315.340124,2.69
1764746315.346422,2.64
1764746315.352607,2.5
1764746315.358965,2.59
1764746315.365231,3.04
1764746315.371419,2.48
1764746315.377683,2.3
1764746315.3838878,2.89
1764746315.3901398,2.78
1764746315.396428,2.84
1764746315.402647,2.61
1764746315.409064,2.22
1764746315.4151628,2.61
1764746315.421352,2.66
1764746315.427604,2.61
1764746315.433868,2.63
1764746315.440319,2.52
1764746315.4464068,2.66
1764746315.452587,2.67
1764746315.459011,2.54
1764746315.465156,2.69
1764746315.4713511,2.76
1764746315.477581,2.73
1764746315.48392,2.45
1764746315.4901052,2.41
1764746315.496323,2.73
1764746315.5025878,2.6
1764746315.5088708,2.52
1764746315.5152068,2.6
1764746315.5213969,2.28
1764746315.5277429,2.44
1764746315.533934,2.68
1764746315.540069,2.33
1764746315.546355,2.42
1764746315.552698,2.57
1764746315.5589929,2.4
1764746315.565155,2.48
1764746315.571428,2.38
1764746315.577556,2.39
1764746315.5838358,2.56
1764746315.590215,2.39
1764746315.596318,2.42
1764746315.60262,2.4
1764746315.608858,2.29
1764746315.615216,2.45
1764746315.621353,2.33
1764746315.627659,2.33
1764746315.633842,2.43
1764746315.64027,2.36
1764746315.6465678,2.54
1764746315.65264,2.45
1764746315.658904,2.25
1764746315.665226,2.4
1764746315.6714392,2.2
1764746315.67756,1.99
1764746315.683954,2.14
1764746315.6901472,2.03
1764746315.696357,2.0
1764746315.702562,1.89
1764746315.7089448,1.83
1764746315.7151942,1.96
1764746315.721341,1.85
1764746315.7275898,1.92
1764746315.733797,1.94
1764746315.740111,1.72
1764746315.746277,1.81
1764746315.75263,1.92
1764746315.758894,1.94
1764746315.765116,2.57
1764746315.771345,3.16
1764746315.777489,3.16
1764746315.783782,3.14
1764746315.790093,2.01
1764746315.796284,1.15
1764746315.802591,1.55
1764746315.808797,1.72
1764746315.815076,1.57
1764746315.821363,1.5
1764746315.827571,1.65
1764746315.833787,1.69
1764746315.840016,1.54
1764746315.8463628,1.64
1764746315.852609,1.63
1764746315.858876,1.54
1764746315.86513,1.72
1764746315.871356,1.56
1764746315.877494,1.61
1764746315.8837829,1.77
1764746315.890089,1.56
1764746315.896235,1.64
1764746315.902462,1.59
1764746315.90882,1.58
1764746315.915088,1.72
1764746315.921302,1.56
1764746315.9274938,1.72
1764746315.933789,1.9
1764746315.940136,1.7
1764746315.946273,1.84
1764746315.952526,1.79
1764746315.9587278,1.7
1764746315.965002,1.84
1764746315.971436,1.69
1764746315.977629,1.71
1764746315.983743,1.73
1764746315.9900422,1.42
1764746315.996224,1.6
1764746316.0025332,1.56
1764746316.008797,1.45
1764746316.014948,1.55
1764746316.021237,1.5
1764746316.02748,1.64
1764746316.033756,1.74
1764746316.0401542,1.67
1764746316.0463428,1.74
1764746316.0526268,1.64
1764746316.059139,1.6
1764746316.065278,1.86
1764746316.0713449,1.74
1764746316.077703,1.57
1764746316.083817,1.74
1764746316.089987,1.61
1764746316.096266,1.5
1764746316.102598,1.56
1764746316.108774,1.64
1764746316.115008,1.76
1764746316.121265,1.59
1764746316.127448,1.58
1764746316.133774,1.82
1764746316.139997,1.73
1764746316.146229,1.74
1764746316.152534,1.66
1764746316.158787,1.74
1764746316.164959,1.96
1764746316.171324,1.67
1764746316.177429,1.54
1764746316.1836832,1.78
1764746316.190058,1.8
1764746316.196231,1.62
1764746316.202475,1.71
1764746316.208731,1.83
1764746316.215022,1.89
1764746316.221217,1.82
1764746316.227502,2.02
1764746316.2337222,2.05
1764746316.240054,1.66
1764746316.2461782,1.72
1764746316.2523909,1.74
1764746316.258798,1.59
1764746316.264962,1.52
1764746316.271213,1.5
1764746316.277428,1.67
1764746316.283742,1.65
1764746316.2900748,1.47
1764746316.2961578,1.56
1764746316.30244,1.52
1764746316.308768,1.26
1764746316.314977,1.37
1764746316.321203,1.53
1764746316.3274188,2.07
1764746316.333746,2.75
1764746316.3401752,2.71
1764746316.3461702,2.27
1764746316.3524952,1.23
1764746316.358769,0.71
1764746316.3649971,1.17
1764746316.371306,1.18
1764746316.3775191,1.13
1764746316.3838751,1.14
1764746316.3901608,0.99
1764746316.396121,1.14
1764746316.402466,1.13
1764746316.408646,0.85
1764746316.4149382,0.9
1764746316.421276,0.96
1764746316.427425,1.02
1764746316.433728,1.02
1764746316.440416,0.76
1764746316.446228,0.87
1764746316.4524338,0.97
1764746316.458892,0.94
1764746316.465091,0.92
1764746316.471206,0.82
1764746316.477379,0.98
1764746316.483711,1.12
1764746316.490004,0.79
1764746316.496119,0.88
1764746316.502357,1.02
1764746316.508844,0.97
1764746316.51486,0.94
1764746316.521191,0.76
1764746316.527436,0.88
1764746316.533638,0.95
1764746316.539894,0.85
1764746316.54612,0.92
1764746316.55251,0.93
1764746316.5587451,0.85
1764746316.5648909,0.9
1764746316.571242,0.86
1764746316.577475,0.87
1764746316.583717,0.94
1764746316.590026,0.8
1764746316.59609,0.86
1764746316.602504,1.01
1764746316.6087492,0.99
1764746316.615159,0.88
1764746316.621214,0.72
1764746316.6274009,0.9
1764746316.633704,1.04
1764746316.639869,0.89
1764746316.64683,0.97
1764746316.656619,0.9
1764746316.659274,0.8
1764746316.6660469,0.94
1764746316.6722188,0.88
1764746316.687003,0.9
1764746316.687197,0.88
1764746316.7076302,0.78
1764746316.707765,0.94
1764746316.707912,0.85
1764746316.70929,0.79
1764746316.717319,0.93
1764746316.7214332,0.83
1764746316.728083,0.97
1764746316.73391,0.89
1764746316.741057,0.71
1764746316.7465248,1.13
1764746316.752563,1.07
1764746316.758846,0.84
1764746316.765028,1.24
1764746316.773666,1.26
1764746316.782904,1.24
1764746316.7869382,1.22
1764746316.790743,1.02
1764746316.796163,1.02
1764746316.8024268,1.05
1764746316.808841,0.92
1764746316.8149571,1.0
1764746316.821099,0.93
1764746316.8275762,0.87
1764746316.834073,1.03
1764746316.840172,1.23
1764746316.846216,1.22
1764746316.852366,0.95
1764746316.858725,0.92
1764746316.864863,1.35
1764746316.871079,1.19
1764746316.877433,1.09
1764746316.883541,1.54
1764746316.889912,2.12
1764746316.896063,2.93
1764746316.902317,2.94
1764746316.908587,2.33
1764746316.9148438,1.24
1764746316.9212108,1.01
1764746316.92739,1.62
1764746316.933567,1.56
1764746316.9398222,1.24
1764746316.946084,1.73
1764746316.9524422,1.47
1764746316.958865,1.27
1764746316.964778,1.8
1764746316.971057,1.3
1764746316.977452,1.09
1764746316.983634,1.61
1764746316.989923,1.57
1764746316.996149,1.51
1764746317.0023198,1.59
1764746317.008839,1.59
1764746317.0148091,1.72
1764746317.0213492,1.68
1764746317.0273018,1.78
1764746317.033566,1.84
1764746317.039852,1.69
1764746317.046093,1.85
1764746317.052394,1.85
1764746317.058606,1.6
1764746317.064855,1.78
1764746317.070998,1.75
1764746317.0772412,1.85
1764746317.0836842,1.84
1764746317.089741,1.63
1764746317.096064,1.87
1764746317.102297,1.71
1764746317.108663,1.41
1764746317.114752,1.74
1764746317.121016,1.76
1764746317.127407,1.69
1764746317.133517,1.71
1764746317.139853,1.6
1764746317.145974,1.77
1764746317.152203,1.77
1764746317.158567,1.75
1764746317.1647072,1.88
1764746317.170992,1.48
1764746317.177212,1.79
1764746317.183541,1.9
1764746317.1897888,1.61
1764746317.195977,1.63
1764746317.202205,1.13
1764746317.20853,1.4
1764746317.214784,1.84
1764746317.221057,1.57
1764746317.2272372,1.7
1764746317.23352,1.8
1764746317.2397811,1.55
1764746317.2459772,1.82
1764746317.2522628,1.93
1764746317.258537,1.73
1764746317.2648058,1.93
1764746317.2710772,1.74
1764746317.277258,1.66
1764746317.2834802,1.88
1764746317.289855,1.92
1764746317.295948,1.8
1764746317.302273,1.9
1764746317.308529,1.79
1764746317.314691,1.85
1764746317.320907,1.93
1764746317.327148,2.1
1764746317.333459,2.02
1764746317.339753,1.88
1764746317.34589,2.09
1764746317.352155,1.8
1764746317.358464,1.59
1764746317.364675,1.92
1764746317.370921,1.58
1764746317.3771782,1.49
1764746317.383572,1.97
1764746317.389715,1.61
1764746317.395944,1.66
1764746317.402281,1.74
1764746317.408466,1.37
1764746317.414745,1.6
1764746317.4210858,1.64
1764746317.427383,1.63
1764746317.4335418,1.66
1764746317.43983,1.72
1764746317.446177,2.57
1764746317.453053,3.15
1764746317.4586308,3.13
1764746317.4648588,2.98
1764746317.47111,1.59
1764746317.477358,1.13
1764746317.4835498,1.48
1764746317.489855,1.44
1764746317.496166,1.51
1764746317.502314,1.57
1764746317.5086238,1.55
1764746317.5148532,1.39
1764746317.521076,1.39
1764746317.527243,1.53
1764746317.533588,1.45
1764746317.54054,1.21
1764746317.545966,1.66
1764746317.552224,1.67
1764746317.558675,1.38
1764746317.564699,1.71
1764746317.570952,1.53
1764746317.5772102,1.37
1764746317.583602,1.71
1764746317.589879,1.61
1764746317.5958998,1.58
1764746317.602207,1.4
1764746317.608444,1.43
1764746317.614743,1.76
1764746317.620863,1.52
1764746317.6271942,1.29
1764746317.633492,1.59
1764746317.640306,1.62
1764746317.645961,1.42
1764746317.652172,1.32
1764746317.658509,1.57
1764746317.664649,1.65
1764746317.6708832,1.22
1764746317.6771998,1.44
1764746317.683379,1.6
1764746317.689683,1.46
1764746317.695903,1.45
1764746317.702162,1.38
1764746317.7084658,1.49
1764746317.71468,1.59
1764746317.720969,1.13
1764746317.727328,1.1
1764746317.733438,1.43
1764746317.73999,1.39
1764746317.745906,1.38
1764746317.752151,1.23
1764746317.7584782,1.37
1764746317.7647429,1.26
1764746317.7709818,1.12
1764746317.777136,1.4
1764746317.783562,1.39
1764746317.789828,1.06
1764746317.795828,1.11
1764746317.802104,1.29
1764746317.808363,1.17
1764746317.814662,1.3
1764746317.821289,0.98
1764746317.827105,0.96
1764746317.8333418,1.31
1764746317.8397708,1.14
1764746317.845956,0.99
1764746317.852142,1.04
1764746317.858408,1.27
1764746317.8646731,1.34
1764746317.870904,1.37
1764746317.877106,1.72
1764746317.8834429,1.41
1764746317.889643,0.8
1764746317.89587,1.1
1764746317.90206,1.07
1764746317.9083982,0.68
1764746317.914574,1.0
1764746317.920992,1.0
1764746317.9271328,0.93
1764746317.933501,0.87
1764746317.939711,0.81
1764746317.945902,0.99
1764746317.9520671,1.23
1764746317.958504,1.12
1764746317.9646962,1.02
1764746317.971151,0.85
1764746317.977143,0.98
1764746317.983501,1.27
1764746317.9896908,1.21
1764746317.995929,1.99
1764746318.002159,2.63
1764746318.0084,2.63
1764746318.014622,1.99
1764746318.020757,0.84
1764746318.02718,0.96
1764746318.0334342,1.27
1764746318.039585,1.1
1764746318.045873,0.93
1764746318.0520089,0.87
1764746318.058364,1.19
1764746318.064569,1.33
1764746318.0709069,1.09
1764746318.077079,1.06
1764746318.08334,1.17
1764746318.08957,1.3
1764746318.095912,1.39
1764746318.102058,1.32
1764746318.10836,1.32
1764746318.114523,1.53
1764746318.1207922,1.48
1764746318.127129,1.68
1764746318.133336,1.52
1764746318.13964,1.21
1764746318.145757,1.33
1764746318.152038,1.63
1764746318.158366,1.74
1764746318.164492,1.72
1764746318.170836,1.53
1764746318.177044,1.67
1764746318.183253,1.7
1764746318.189638,1.62
1764746318.1957278,1.88
1764746318.202032,1.85
1764746318.208194,1.64
1764746318.214515,1.68
1764746318.220812,1.89
1764746318.2271612,1.96
1764746318.2333288,1.89
1764746318.24569,1.55
1764746318.2508411,1.76
1764746318.258132,2.0
1764746318.259787,1.85
1764746318.2788732,1.86
1764746318.312275,1.75
1764746318.333166,1.96
1764746318.3334951,2.12
1764746318.333785,1.83
1764746318.334054,2.03
1764746318.33434,2.1
1764746318.334629,1.99
1764746318.3349068,1.97
1764746318.335181,1.95
1764746318.335449,2.17
1764746318.335713,2.19
1764746318.339945,1.98
1764746318.3459048,2.52
1764746318.352159,2.35
1764746318.361536,2.06
1764746318.370595,2.12
1764746318.376719,2.11
1764746318.3779042,2.1
1764746318.3834171,2.38
1764746318.3897312,2.33
1764746318.395853,2.39
1764746318.402399,2.39
1764746318.4085052,2.31
1764746318.414989,2.56
1764746318.420801,2.61
1764746318.4272242,2.56
1764746318.4333792,2.47
1764746318.439546,2.4
1764746318.445875,2.57
1764746318.452098,2.37
1764746318.458373,2.22
1764746318.464692,2.4
1764746318.470809,2.27
1764746318.477064,2.33
1764746318.483244,2.33
1764746318.489687,2.27
1764746318.495764,2.46
1764746318.5021062,2.39
1764746318.508249,2.24
1764746318.514705,2.31
1764746318.520895,2.25
1764746318.527083,2.51
1764746318.533229,2.89
1764746318.5394838,3.16
1764746318.545692,3.17
1764746318.552078,3.17
1764746318.5586848,3.17
1764746318.5644548,3.15
1764746318.570749,2.23
1764746318.5769742,1.76
1764746318.583186,2.42
1764746318.5894752,2.41
1764746318.595652,2.22
1764746318.60191,2.2
1764746318.608208,2.24
1764746318.614476,2.34
1764746318.620756,2.04
1764746318.6269162,2.16
1764746318.633229,2.37
1764746318.639613,2.12
1764746318.645666,2.28
1764746318.652066,2.34
1764746318.658161,2.02
1764746318.664424,2.32
1764746318.6706612,2.35
1764746318.676865,2.18
1764746318.6833348,2.16
1764746318.6895192,2.2
1764746318.6957371,2.31
1764746318.7020538,1.96
1764746318.7083242,1.94
1764746318.7144582,2.2
1764746318.720704,1.89
1764746318.726956,2.06
1764746318.73322,2.19
1764746318.739397,1.81
1764746318.745604,1.96
1764746318.751912,2.15
1764746318.758141,1.91
1764746318.764432,1.92
1764746318.770686,1.79
1764746318.776997,1.96
1764746318.783255,1.92
1764746318.789504,1.59
1764746318.7957592,1.8
1764746318.802057,1.76
1764746318.8083572,1.59
1764746318.814508,1.79
1764746318.820765,1.64
1764746318.827148,1.62
1764746318.8333251,1.69
1764746318.8396852,1.55
1764746318.845927,1.73
1764746318.85211,1.56
1764746318.858696,1.22
1764746318.864803,1.6
1764746318.874688,1.62
1764746318.877847,1.42
1764746318.883657,1.41
1764746318.889854,1.29
1764746318.899048,1.5
1764746318.902157,1.34
1764746318.90892,1.22
1764746318.914529,1.41
1764746318.920824,1.24
1764746318.92707,1.28
1764746318.933252,1.45
1764746318.939521,1.29
1764746318.945741,1.48
1764746318.95194,1.39
1764746318.9582012,1.16
1764746318.96447,1.45
1764746318.971033,1.31
1764746318.9769511,1.29
1764746318.983223,1.4
1764746318.989515,1.12
1764746318.995868,1.11
1764746319.001924,1.15
1764746319.0081978,1.01
1764746319.014399,1.0
1764746319.020658,0.82
1764746319.02693,0.97
1764746319.033122,1.07
1764746319.039506,0.74
1764746319.045569,0.86
1764746319.051844,0.94
1764746319.058055,0.82
1764746319.064327,0.87
1764746319.070656,0.72
1764746319.076807,0.87
1764746319.08306,1.26
1764746319.08963,1.78
1764746319.095618,2.24
1764746319.101939,2.11
1764746319.108196,0.97
1764746319.114393,0.23
1764746319.120855,0.33
1764746319.126865,0.59
1764746319.133161,0.62
1764746319.1395378,0.4
1764746319.145619,0.62
1764746319.152023,0.48
1764746319.1581912,0.29
1764746319.164317,0.56
1764746319.1710331,0.56
1764746319.176949,0.28
1764746319.183082,0.32
1764746319.189441,0.39
1764746319.195542,0.45
1764746319.201893,0.37
1764746319.208184,0.34
1764746319.2143118,0.45
1764746319.220523,0.32
1764746319.226845,0.43
1764746319.233015,0.56
1764746319.239409,0.33
1764746319.24558,0.34
1764746319.251895,0.4
1764746319.258224,0.35
1764746319.2643268,0.43
1764746319.270666,0.36
1764746319.27675,0.46
1764746319.283076,0.56
1764746319.289686,0.38
1764746319.295587,0.48
1764746319.301933,0.46
1764746319.3081632,0.42
1764746319.314334,0.54
1764746319.320936,0.23
1764746319.326829,0.34
1764746319.33311,0.51
1764746319.339347,0.31
1764746319.345588,0.35
1764746319.35183,0.4
1764746319.358031,0.28
1764746319.36437,0.44
1764746319.370579,0.37
1764746319.376792,0.29
1764746319.383011,0.34
1764746319.389502,0.19
1764746319.39554,0.31
1764746319.401782,0.32
1764746319.4080262,0.2
1764746319.414321,0.42
1764746319.420817,0.41
1764746319.42684,0.34
1764746319.433072,0.38
1764746319.439401,0.31
1764746319.445568,0.4
1764746319.451833,0.37
1764746319.458025,0.28
1764746319.464395,0.4
1764746319.470536,0.34
1764746319.4767292,0.36
1764746319.4829729,0.45
1764746319.4894552,0.39
1764746319.495498,0.46
1764746319.501719,0.56
1764746319.508045,0.6
1764746319.514347,0.69
1764746319.520604,0.48
1764746319.526746,0.53
1764746319.53299,0.77
1764746319.53938,0.49
1764746319.545478,0.2
1764746319.5518138,0.28
1764746319.5581388,0.3
1764746319.564332,0.3
1764746319.570648,0.18
1764746319.576855,0.22
1764746319.5830138,0.38
1764746319.589691,0.24
1764746319.595479,0.26
1764746319.601722,0.37
1764746319.6079628,0.34
1764746319.614312,0.43
1764746319.620527,0.37
1764746319.626755,0.42
1764746319.6330822,1.01
1764746319.639503,1.9
1764746319.64555,2.19
1764746319.651842,1.69
1764746319.658158,0.35
1764746319.66463,0.0
1764746319.670638,0.27
1764746319.6768398,0.62
1764746319.683048,0.65
1764746319.6894789,0.35
1764746319.695552,0.53
1764746319.7017238,0.71
1764746319.707956,0.56
1764746319.714335,0.65
1764746319.720505,0.67
1764746319.72666,0.65
1764746319.732951,0.74
1764746319.739305,0.73
1764746319.745457,0.78
1764746319.751631,0.79
1764746319.758004,0.75
1764746319.764146,0.8
1764746319.770512,0.8
1764746319.7766862,0.86
1764746319.782899,0.92
1764746319.789234,0.84
1764746319.795447,0.92
1764746319.801725,1.07
1764746319.807967,0.89
1764746319.814262,1.01
1764746319.820522,1.09
1764746319.826634,1.02
1764746319.832906,0.93
1764746319.8392682,0.71
1764746319.845525,0.86
1764746319.851669,0.99
1764746319.857911,0.84
1764746319.864192,0.83
1764746319.870444,0.86
1764746319.87687,0.76
1764746319.882895,0.6
1764746319.889212,0.62
1764746319.895437,0.74
1764746319.901906,0.67
1764746319.907916,0.6
1764746319.91421,0.78
1764746319.920487,0.85
1764746319.944319,0.76
1764746319.959415,0.8
1764746319.969404,0.76
1764746319.974389,0.82
1764746319.979996,0.94
1764746319.9851131,0.9
1764746319.985252,1.0
1764746319.9885828,1.09
1764746319.988731,1.09
1764746319.988829,1.13
1764746319.9891489,0.95
1764746319.998798,1.14
1764746320.009567,1.3
1764746320.015448,1.17
1764746320.016337,1.26
1764746320.022222,1.31
1764746320.029728,1.36
1764746320.035628,1.49
1764746320.041795,1.46
1764746320.045564,1.61
1764746320.051797,1.77
1764746320.05813,1.71
1764746320.065417,1.71
1764746320.0829031,1.76
1764746320.08323,1.76
1764746320.083482,1.68
1764746320.092845,1.61
1764746320.0954938,1.53
1764746320.101682,1.56
1764746320.10971,1.52
1764746320.1141791,1.66
1764746320.120735,1.71
1764746320.126861,1.66
1764746320.132968,1.76
1764746320.139588,1.71
1764746320.145487,1.79
1764746320.151697,1.84
1764746320.158005,1.89
1764746320.164193,1.94
1764746320.170436,1.98
1764746320.176669,2.63
1764746320.182993,3.16
1764746320.1892312,3.16
1764746320.195425,3.14
1764746320.201605,2.1
1764746320.208011,1.28
1764746320.214179,1.84
1764746320.22042,2.07
1764746320.226698,1.84
1764746320.23293,1.97
1764746320.2392168,1.96
1764746320.245358,2.02
1764746320.251595,2.08
1764746320.257925,1.96
1764746320.2642188,2.11
1764746320.2707782,2.15
1764746320.276706,2.11
1764746320.283009,2.21
1764746320.289302,2.23
1764746320.295456,2.32
1764746320.30179,2.3
1764746320.307915,2.04
1764746320.314128,2.29
1764746320.320449,2.45
1764746320.3265972,2.22
1764746320.332853,2.26
1764746320.339312,2.25
1764746320.345373,2.33
1764746320.351698,2.43
1764746320.357887,2.38
1764746320.364287,2.41
1764746320.370605,2.42
1764746320.376663,2.35
1764746320.382889,2.39
1764746320.389182,2.33
1764746320.395306,2.37
1764746320.401697,2.43
1764746320.407969,2.27
1764746320.414185,2.47
1764746320.4204412,2.42
1764746320.4268448,2.33
1764746320.4329522,2.48
1764746320.439332,2.36
1764746320.445479,2.5
1764746320.451838,2.6
1764746320.457917,2.55
1764746320.464149,2.47
1764746320.470453,2.43
1764746320.47658,2.5
1764746320.482796,2.68
1764746320.48927,2.57
1764746320.4953449,2.47
1764746320.501656,2.51
1764746320.507772,2.47
1764746320.514177,2.58
1764746320.52048,2.59
1764746320.526628,2.63
1764746320.5328178,2.73
1764746320.539247,2.5
1764746320.5453582,2.57
1764746320.551713,2.77
1764746320.557947,2.54
1764746320.564106,2.79
1764746320.570664,2.87
1764746320.5765078,2.81
1764746320.582719,2.66
1764746320.5891242,2.56
1764746320.5952342,2.94
1764746320.601525,2.96
1764746320.60784,2.81
1764746320.613989,2.97
1764746320.620505,2.78
1764746320.6265311,2.58
1764746320.632812,2.67
1764746320.639106,2.57
1764746320.64521,2.58
1764746320.651516,2.56
1764746320.6578171,2.41
1764746320.664025,2.46
1764746320.67035,2.43
1764746320.6765592,2.45
1764746320.6828318,2.59
1764746320.6890602,2.5
1764746320.695275,2.33
1764746320.701503,2.44
1764746320.707793,2.46
1764746320.7140448,2.88
1764746320.720298,3.16
1764746320.726518,3.17
1764746320.732873,3.17
1764746320.739149,3.17
1764746320.745217,3.0
1764746320.751644,1.87
1764746320.757901,1.78
1764746320.764278,2.33
1764746320.770528,2.18
1764746320.776601,2.12
1764746320.782901,2.09
1764746320.789314,2.08
1764746320.7952168,2.24
1764746320.801611,2.28
1764746320.807876,2.04
1764746320.814029,2.16
1764746320.820364,2.05
1764746320.826515,1.98
1764746320.832809,2.14
1764746320.839489,2.05
1764746320.8453188,2.01
1764746320.8518069,1.98
1764746320.857929,2.01
1764746320.864059,2.18
1764746320.870395,2.1
1764746320.876541,2.04
1764746320.882776,2.22
1764746320.889068,1.96
1764746320.895203,2.18
1764746320.9015,2.26
1764746320.907788,1.93
1764746320.91392,1.96
1764746320.920382,1.99
1764746320.926483,1.95
1764746320.932715,2.02
1764746320.938999,1.8
1764746320.94522,1.95
1764746320.951436,1.89
1764746320.9576771,1.63
1764746320.9639628,1.85
1764746320.970243,1.87
1764746320.976528,1.68
1764746320.982722,1.84
1764746320.988974,1.77
1764746320.995233,1.84
1764746321.001375,1.95
1764746321.007693,1.78
1764746321.014046,1.77
1764746321.0202692,1.8
1764746321.026562,1.63
1764746321.03275,1.69
1764746321.0390851,1.61
1764746321.0454998,1.81
1764746321.051703,1.78
1764746321.057822,1.5
1764746321.064192,1.68
1764746321.070602,1.74
1764746321.076551,1.58
1764746321.082939,1.7
1764746321.0892842,1.34
1764746321.0954618,1.64
1764746321.101716,1.93
1764746321.1079109,1.68
1764746321.114035,1.76
1764746321.120558,1.61
1764746321.126495,1.63
1764746321.132823,2.04
1764746321.139106,1.88
1764746321.145378,1.65
1764746321.1514828,1.71
1764746321.157776,1.63
1764746321.164163,1.56
1764746321.170346,1.37
1764746321.1765451,1.36
1764746321.182754,1.39
1764746321.188967,1.43
1764746321.1953769,1.38
1764746321.201466,1.25
1764746321.2077818,1.22
1764746321.213967,1.32
1764746321.220254,1.3
1764746321.226449,1.14
1764746321.232708,1.18
1764746321.23896,1.09
1764746321.2451751,1.37
1764746321.251414,1.57
1764746321.257886,1.95
1764746321.2639968,2.81
1764746321.27053,3.01
1764746321.276424,1.86
1764746321.282648,0.5
1764746321.288932,0.73
1764746321.2951071,1.52
1764746321.301319,1.14
1764746321.307598,0.7
1764746321.313843,0.9
1764746321.320493,1.18
1764746321.326305,0.89
1764746321.332563,0.88
1764746321.3388748,1.01
1764746321.345212,1.07
1764746321.351272,1.16
1764746321.3576388,0.98
1764746321.3638542,0.88
1764746321.370378,1.25
1764746321.376304,1.24
1764746321.3826509,1.09
1764746321.388866,0.9
1764746321.395139,0.92
1764746321.401359,1.2
1764746321.407624,1.1
1764746321.413864,0.94
1764746321.420335,1.04
1764746321.426381,1.1
1764746321.4326222,1.17
1764746321.438802,1.27
1764746321.445107,1.1
1764746321.451382,0.89
1764746321.457588,1.23
1764746321.463822,1.41
1764746321.4707048,1.08
1764746321.476332,0.84
1764746321.482611,1.04
1764746321.4888692,1.48
1764746321.495279,1.28
1764746321.5013618,0.87
1764746321.5076292,0.92
1764746321.513939,1.35
1764746321.520225,1.48
1764746321.526328,1.18
1764746321.532604,1.11
1764746321.53891,1.19
1764746321.545299,1.35
1764746321.5513542,1.29
1764746321.5575428,1.31
1764746321.5638652,1.53
1764746321.570507,1.37
1764746321.57636,1.43
1764746321.58255,1.71
1764746321.588929,1.68
1764746321.595145,1.37
1764746321.601356,1.46
1764746321.607583,1.66
1764746321.613923,1.68
1764746321.620259,1.44
1764746321.62631,1.43
1764746321.632597,1.58
1764746321.638883,1.52
1764746321.64523,1.67
1764746321.651423,1.64
1764746321.65755,1.64
1764746321.692196,1.8
1764746321.6924229,1.81
1764746321.699111,1.83
1764746321.6993449,1.91
1764746321.69953,1.76
1764746321.714574,1.68
1764746321.7149482,1.64
1764746321.715174,1.47
1764746321.715395,1.64
1764746321.724577,1.66
1764746321.726424,1.55
1764746321.739342,1.62
1764746321.739695,1.57
1764746321.7609658,1.59
1764746321.7613142,1.67
1764746321.762972,1.64
1764746321.76988,1.77
1764746321.770428,1.65
1764746321.777482,1.7
1764746321.782669,2.01
1764746321.788896,2.36
1764746321.795205,3.15
1764746321.801725,3.16
1764746321.807929,3.15
1764746321.814372,2.09
1764746321.820093,0.97
1764746321.8263412,1.55
1764746321.832837,2.11
1764746321.838965,1.74
1764746321.845171,1.64
1764746321.8516018,1.8
1764746321.857633,1.69
1764746321.863895,1.7
1764746321.870183,1.73
1764746321.876369,1.85
1764746321.882594,1.92
1764746321.8892329,1.64
1764746321.895057,1.88
1764746321.901366,2.0
1764746321.907626,1.84
1764746321.91385,1.93
1764746321.92011,1.91
1764746321.9263098,1.92
1764746321.932546,2.09
1764746321.938805,1.97
1764746321.94503,2.0
1764746321.951334,1.98
1764746321.957568,1.91
1764746321.963765,2.09
1764746321.970075,1.96
1764746321.97629,1.94
1764746321.982584,2.21
1764746321.988824,2.08
1764746321.995007,2.03
1764746322.0013251,2.06
1764746322.007606,2.01
1764746322.013843,2.09
1764746322.020063,1.99
1764746322.026318,1.97
1764746322.032632,2.08
1764746322.038794,1.95
1764746322.0450208,2.0
1764746322.051278,2.04
1764746322.057537,1.95
1764746322.063856,1.99
1764746322.070042,1.96
1764746322.076237,2.04
1764746322.082614,2.13
1764746322.088854,1.89
1764746322.095175,2.06
1764746322.101275,2.23
1764746322.1075451,2.04
1764746322.113763,2.1
1764746322.120327,2.04
1764746322.126237,2.04
1764746322.132476,2.13
1764746322.13876,1.98
1764746322.145035,2.03
1764746322.151306,2.04
1764746322.157595,1.9
1764746322.163719,2.04
1764746322.170033,1.92
1764746322.1762218,1.96
1764746322.182486,2.16
1764746322.188716,2.0
1764746322.19497,1.92
1764746322.201267,2.16
1764746322.207434,2.27
1764746322.213693,2.17
1764746322.220068,1.98
1764746322.226183,2.03
1764746322.2324328,2.08
1764746322.238569,1.76
1764746322.244971,1.78
1764746322.251232,1.76
1764746322.25755,1.53
1764746322.263726,1.68
1764746322.270048,1.53
1764746322.276255,1.55
1764746322.282451,1.68
1764746322.288699,1.52
1764746322.294946,1.57
1764746322.301179,1.57
1764746322.307486,1.47
1764746322.313714,1.57
1764746322.319935,1.53
1764746322.3261309,1.78
1764746322.332462,2.71
1764746322.338654,3.15
1764746322.344936,3.09
1764746322.351186,2.11
1764746322.357516,0.84
1764746322.3637152,1.18
1764746322.369995,1.61
1764746322.376253,1.41
1764746322.382478,1.31
1764746322.388719,1.37
1764746322.39495,1.4
1764746322.4011068,1.27
1764746322.4074109,1.27
1764746322.41362,1.52
1764746322.420056,1.4
1764746322.4261389,1.32
1764746322.432382,1.45
1764746322.438622,1.32
1764746322.444879,1.31
1764746322.4511418,1.34
1764746322.4573948,1.34
1764746322.463679,1.43
1764746322.4702148,1.33
1764746322.4761422,1.39
1764746322.482448,1.47
1764746322.488725,1.32
1764746322.4947982,1.46
1764746322.50172,1.49
1764746322.507447,1.36
1764746322.513672,1.45
1764746322.519973,1.39
1764746322.5261068,1.37
1764746322.532414,1.44
1764746322.53876,1.31
1764746322.544822,1.39
1764746322.5513,1.5
1764746322.557398,1.34
1764746322.563644,1.31
1764746322.570078,1.32
1764746322.57617,1.37
1764746322.5823529,1.42
1764746322.588508,1.25
1764746322.594919,1.3
1764746322.60119,1.37
1764746322.6073549,1.26
1764746322.613606,1.42
1764746322.61989,1.41
1764746322.626032,1.27
1764746322.632404,1.31
1764746322.638578,1.28
1764746322.644829,1.4
1764746322.651167,1.4
1764746322.657292,1.33
1764746322.663638,1.41
1764746322.67003,1.29
1764746322.676157,1.23
1764746322.682335,1.33
1764746322.688573,1.23
1764746322.694954,1.27
1764746322.7012322,1.3
1764746322.70739,1.19
1764746322.713694,1.33
1764746322.719902,1.33
1764746322.7261171,1.28
1764746322.7324858,1.35
1764746322.738605,1.3
1764746322.7448,1.3
1764746322.751072,1.34
1764746322.757329,1.37
1764746322.763552,1.56
1764746322.769909,1.38
1764746322.77618,1.42
1764746322.7823849,1.76
1764746322.78852,1.67
1764746322.794814,1.55
1764746322.801136,1.61
1764746322.807282,1.55
1764746322.8136,1.45
1764746322.819873,1.37
1764746322.82631,1.37
1764746322.8323562,1.46
1764746322.838656,1.31
1764746322.8447812,1.4
1764746322.8512378,1.46
1764746322.857314,1.38
1764746322.863561,1.49
1764746322.869879,1.47
1764746322.876191,1.44
1764746322.882459,1.53
1764746322.888799,1.39
1764746322.894826,1.43
1764746322.901079,1.75
1764746322.907367,2.51
1764746322.913658,3.15
1764746322.9202151,2.93
1764746322.926005,1.88
1764746322.932417,1.04
1764746322.9387069,1.2
1764746322.944932,1.57
1764746322.951093,1.5
1764746322.957459,1.22
1764746322.963564,1.36
1764746322.9699311,1.42
1764746322.976073,1.41
1764746322.98246,1.43
1764746322.988536,1.37
1764746322.994785,1.38
1764746323.001156,1.4
1764746323.007492,1.37
1764746323.01357,1.51
1764746323.0198772,1.47
1764746323.0261,1.46
1764746323.032334,1.55
1764746323.038527,1.54
1764746323.044769,1.68
1764746323.051368,1.68
1764746323.057369,1.59
1764746323.0635788,1.67
1764746323.069908,1.7
1764746323.076135,1.73
1764746323.082174,1.82
1764746323.088463,1.79
1764746323.0947149,1.87
1764746323.101001,1.87
1764746323.107262,1.74
1764746323.113633,1.94
1764746323.119744,1.98
1764746323.12598,1.93
1764746323.132263,2.0
1764746323.1385238,1.96
1764746323.144946,2.05
1764746323.151079,2.08
1764746323.157411,1.89
1764746323.163542,2.07
1764746323.1703732,2.06
1764746323.176127,2.01
1764746323.1822562,2.19
1764746323.1884842,2.13
1764746323.194772,2.18
1764746323.2010398,2.18
1764746323.207377,2.13
1764746323.213556,2.31
1764746323.219779,2.22
1764746323.225985,2.16
1764746323.23227,2.3
1764746323.238522,2.18
1764746323.244718,2.23
1764746323.250936,2.36
1764746323.257161,2.24
1764746323.2634351,2.27
1764746323.270032,2.21
1764746323.276057,2.23
1764746323.2822652,2.38
1764746323.288418,2.24
1764746323.294691,2.27
1764746323.301334,2.35
1764746323.307198,2.28
1764746323.313457,2.46
1764746323.322314,2.48
1764746323.3287208,2.48
1764746323.3453162,2.68
1764746323.353368,2.62
1764746323.353838,2.64
1764746323.3540869,2.57
1764746323.38352,2.61
1764746323.410039,2.69
1764746323.410294,2.36
1764746323.411204,2.24
1764746323.411548,2.39
1764746323.411999,2.29
1764746323.412417,2.34
1764746323.412769,2.37
1764746323.4134212,2.22
1764746323.4136598,2.37
1764746323.419808,2.38
1764746323.426018,2.32
1764746323.44748,2.41
1764746323.449572,2.25
1764746323.44987,2.34
1764746323.455432,2.53
1764746323.457251,2.78
1764746323.463867,3.16
1764746323.469795,3.17
1764746323.4771829,3.17
1764746323.4823449,3.15
1764746323.4884522,2.12
1764746323.4947178,1.75
1764746323.5009222,2.28
1764746323.507346,2.32
1764746323.513503,2.28
1764746323.519678,2.08
1764746323.5259469,2.07
1764746323.532172,2.31
1764746323.538506,2.19
1764746323.5445929,2.1
1764746323.550957,2.21
1764746323.557078,2.31
1764746323.563374,2.26
1764746323.569778,2.18
1764746323.5759811,2.2
1764746323.5822809,2.35
1764746323.588425,2.21
1764746323.594721,2.26
1764746323.601128,2.24
1764746323.607226,2.21
1764746323.613544,2.45
1764746323.619798,2.28
1764746323.625917,2.2
1764746323.632106,2.45
1764746323.6384242,2.26
1764746323.6447191,2.31
1764746323.650939,2.37
1764746323.657187,2.24
1764746323.663525,2.29
1764746323.669827,2.18
1764746323.675974,2.14
1764746323.6823308,2.26
1764746323.688386,2.14
1764746323.694741,2.14
1764746323.700999,2.12
1764746323.7071218,2.08
1764746323.7133949,2.13
1764746323.720523,1.91
1764746323.725968,1.95
1764746323.732189,2.19
1764746323.7384052,2.01
1764746323.7446022,2.06
1764746323.750958,1.91
1764746323.757012,1.83
1764746323.763395,2.22
1764746323.769699,1.99
1764746323.775929,1.82
1764746323.782151,1.92
1764746323.78836,1.8
1764746323.79469,1.82
1764746323.800951,1.77
1764746323.8071492,1.77
1764746323.813426,1.95
1764746323.820683,1.74
1764746323.825919,1.64
1764746323.832146,1.82
1764746323.8384378,1.76
1764746323.844735,1.72
1764746323.851052,1.67
1764746323.857136,1.65
1764746323.863509,1.88
1764746323.871441,1.65
1764746323.8759072,1.64
1764746323.882162,1.92
1764746323.888418,1.73
1764746323.894627,1.64
1764746323.90097,1.82
1764746323.907128,1.78
1764746323.913373,1.58
1764746323.919683,1.34
1764746323.925889,1.39
1764746323.932215,1.51
1764746323.9383569,1.22
1764746323.9447172,1.32
1764746323.9509828,1.28
1764746323.957101,1.12
1764746323.963378,1.42
1764746323.970015,1.26
1764746323.9758332,1.13
1764746323.982016,1.32
1764746323.988343,1.15
1764746323.994501,1.25
1764746324.0008802,1.64
1764746324.007048,2.26
1764746324.013346,2.81
1764746324.020499,2.51
1764746324.0259268,1.68
1764746324.032011,0.83
1764746324.03833,0.8
1764746324.044546,1.2
1764746324.051243,1.17
1764746324.0570738,0.94
1764746324.063382,1.06
1764746324.069695,0.98
1764746324.075831,0.89
1764746324.082238,1.07
1764746324.0883572,0.91
1764746324.09466,0.95
1764746324.100925,0.96
1764746324.107143,0.97
1764746324.113583,1.08
1764746324.119776,1.02
1764746324.125943,1.03
1764746324.132278,1.1
1764746324.138301,0.87
1764746324.144616,0.97
1764746324.150877,1.09
1764746324.157151,0.84
1764746324.163318,1.0
1764746324.170739,0.95
1764746324.176011,1.04
1764746324.182173,1.11
1764746324.1883311,1.02
1764746324.19454,1.03
1764746324.20085,1.15
1764746324.207076,1.02
1764746324.21332,0.96
1764746324.221083,0.99
1764746324.22596,1.23
1764746324.2321632,1.2
1764746324.238365,0.95
1764746324.244648,1.13
1764746324.250953,1.18
1764746324.257133,0.97
1764746324.2633522,1.13
1764746324.270545,1.04
1764746324.2759838,1.0
1764746324.282239,1.12
1764746324.288344,1.12
1764746324.294553,1.3
1764746324.300889,1.15
1764746324.3072798,1.0
1764746324.313526,1.39
1764746324.3197298,1.3
1764746324.325808,1.03
1764746324.3322382,1.16
1764746324.338466,0.97
1764746324.3446689,1.06
1764746324.3509812,1.27
1764746324.3572218,1.11
1764746324.363383,1.16
1764746324.370049,1.07
1764746324.375901,1.13
1764746324.382124,1.17
1764746324.388412,1.07
1764746324.394521,1.3
1764746324.400981,1.33
1764746324.407017,1.06
1764746324.4133272,1.16
1764746324.419606,1.44
1764746324.4258869,1.51
1764746324.432132,1.33
1764746324.438293,1.27
1764746324.444524,1.36
1764746324.4508202,1.08
1764746324.45712,0.87
1764746324.4634628,1.17
1764746324.4695911,1.09
1764746324.4758542,0.8
1764746324.4821298,1.0
1764746324.488346,0.97
1764746324.494459,1.01
1764746324.500834,1.07
1764746324.507078,0.85
1764746324.513459,0.96
1764746324.51958,1.13
1764746324.525878,1.06
1764746324.532108,1.14
1764746324.538234,1.21
1764746324.544506,1.96
1764746324.550787,2.86
1764746324.5570052,2.73
1764746324.563276,1.82
1764746324.569637,0.43
1764746324.5759082,0.58
1764746324.582102,1.27
1764746324.588244,0.99
1764746324.594583,0.95
1764746324.6007628,1.1
1764746324.606982,0.89
1764746324.613276,1.1
1764746324.621132,1.15
1764746324.625797,1.12
1764746324.6321018,1.32
1764746324.63822,1.13
1764746324.644525,1.06
1764746324.651249,1.17
1764746324.656964,1.18
1764746324.663326,1.26
1764746324.669539,1.08
1764746324.675771,1.1
1764746324.6821198,1.31
1764746324.688244,1.21
1764746324.694496,1.24
1764746324.700717,1.3
1764746324.706934,1.28
1764746324.713401,1.42
1764746324.719584,1.47
1764746324.725926,1.33
1764746324.732088,1.3
1764746324.738222,1.31
1764746324.744375,1.48
1764746324.7512069,1.43
1764746324.756993,1.33
1764746324.7632298,1.5
1764746324.76949,1.3
1764746324.7757592,1.27
1764746324.782033,1.49
1764746324.788265,1.29
1764746324.794506,1.31
1764746324.8009448,1.37
1764746324.8070242,1.35
1764746324.8132129,1.43
1764746324.820922,1.36
1764746324.825705,1.27
1764746324.831906,1.44
1764746324.838176,1.52
1764746324.844436,1.5
1764746324.85182,1.38
1764746324.856906,1.43
1764746324.863101,1.48
1764746324.8704178,1.42
1764746324.8758452,1.39
1764746324.881925,1.45
1764746324.888343,1.33
1764746324.894432,1.51
1764746324.9006531,1.57
1764746324.906986,1.47
1764746324.913102,1.49
1764746324.919456,1.44
1764746324.9256792,1.51
1764746324.931844,1.74
1764746324.938552,1.61
1764746324.944324,1.54
1764746324.950763,1.75
1764746324.9568489,1.84
1764746324.963157,1.79
1764746324.969488,1.64
1764746324.97571,1.7
1764746324.9818602,1.79
1764746324.988149,1.53
1764746324.994381,1.55
1764746325.000629,1.7
1764746325.0125492,1.48
1764746325.032068,1.49
1764746325.0636292,1.49
1764746325.074097,1.47
1764746325.095885,1.67
1764746325.096266,1.55
1764746325.0967429,1.57
1764746325.096938,1.51
1764746325.0970528,1.52
1764746325.097164,1.75
1764746325.09729,1.71
1764746325.097614,1.85
1764746325.097771,2.69
1764746325.0979211,3.16
1764746325.098062,3.16
1764746325.100651,2.86
1764746325.10691,1.3
1764746325.115041,1.25
1764746325.121072,1.8
1764746325.125628,1.73
1764746325.131884,1.68
1764746325.138153,1.52
1764746325.1445088,1.64
1764746325.150582,1.78
1764746325.156914,1.59
1764746325.163145,1.71
1764746325.169481,1.65
1764746325.1758,1.65
1764746325.181887,1.85
1764746325.188225,1.68
1764746325.194498,1.75
1764746325.2009978,1.83
1764746325.206849,1.75
1764746325.2131698,1.89
1764746325.219372,1.8
1764746325.2255712,1.82
1764746325.231835,1.96
1764746325.2380302,1.79
1764746325.244355,1.89
1764746325.2506418,1.96
1764746325.256852,1.93
1764746325.263066,2.04
1764746325.269414,1.87
1764746325.27558,1.88
1764746325.281891,2.07
1764746325.288042,1.92
1764746325.2944262,1.96
1764746325.30057,1.91
1764746325.306734,1.85
1764746325.313086,1.99
1764746325.319341,1.83
1764746325.3256042,1.9
1764746325.331885,2.04
1764746325.3380768,1.87
1764746325.3443992,1.95
1764746325.350595,1.92
1764746325.356917,1.72
1764746325.363163,1.96
1764746325.36941,1.9
1764746325.375583,1.89
1764746325.381817,2.01
1764746325.388187,1.83
1764746325.394399,1.95
1764746325.4011562,1.96
1764746325.406891,1.81
1764746325.41311,1.97
1764746325.41969,1.87
1764746325.425683,1.86
1764746325.431848,1.97
1764746325.4380338,1.79
1764746325.444279,1.93
1764746325.450599,1.91
1764746325.456897,1.7
1764746325.463207,1.85
1764746325.469347,1.8
1764746325.47567,1.92
1764746325.4818969,2.05
1764746325.4881291,1.75
1764746325.4945111,1.95
1764746325.5008152,2.11
1764746325.506808,1.96
1764746325.513104,2.04
1764746325.519384,1.88
1764746325.525559,1.79
1764746325.531747,1.74
1764746325.538023,1.51
1764746325.5442922,1.71
1764746325.550698,1.65
1764746325.5569038,1.39
1764746325.563103,1.59
1764746325.569458,1.51
1764746325.575562,1.39
1764746325.581755,1.46
1764746325.5880058,1.5
1764746325.594283,1.53
1764746325.600613,1.47
1764746325.606685,1.38
1764746325.613098,1.62
1764746325.619495,1.74
1764746325.625484,2.53
1764746325.6317508,3.15
1764746325.637963,2.91
1764746325.644341,1.91
1764746325.650754,0.84
1764746325.6567402,1.02
1764746325.663146,1.56
1764746325.6699169,1.31
1764746325.675452,1.17
1764746325.681798,1.3
1764746325.6882648,1.15
1764746325.69429,1.26
1764746325.700792,1.23
1764746325.70686,1.13
1764746325.7131789,1.37
1764746325.719249,1.19
1764746325.725536,1.19
1764746325.7317371,1.3
1764746325.738166,1.16
1764746325.744328,1.26
1764746325.7505448,1.3
1764746325.756715,1.18
1764746325.76322,1.34
1764746325.769217,1.21
1764746325.7755032,1.23
1764746325.7817469,1.37
1764746325.78797,1.27
1764746325.794246,1.34
1764746325.8015308,1.24
1764746325.806705,1.14
1764746325.8131042,1.45
1764746325.819561,1.31
1764746325.825546,1.18
1764746325.831734,1.38
1764746325.8380969,1.2
1764746325.8442008,1.19
1764746325.85056,1.21
1764746325.8567328,1.21
1764746325.86307,1.3
1764746325.869442,1.16
1764746325.8753972,1.15
1764746325.881666,1.28
1764746325.888043,1.14
1764746325.894248,1.23
1764746325.900625,1.23
1764746325.906662,1.12
1764746325.913006,1.23
1764746325.919282,1.13
1764746325.925445,1.15
1764746325.931679,1.26
1764746325.937856,1.11
1764746325.94413,1.19
1764746325.950409,1.24
1764746325.956586,1.11
1764746325.962818,1.2
1764746325.9691148,1.09
1764746325.975323,1.05
1764746325.9815838,1.21
1764746325.987874,1.11
1764746325.99414,1.14
1764746326.000426,1.11
1764746326.006652,1.03
1764746326.0128582,1.2
1764746326.0191932,1.1
1764746326.025439,1.09
1764746326.0318458,1.15
1764746326.038016,1.07
1764746326.04426,1.17
1764746326.05049,1.2
1764746326.056784,1.15
1764746326.062979,1.42
1764746326.069407,1.31
1764746326.0754628,1.16
1764746326.08189,1.3
1764746326.087945,1.16
1764746326.094049,1.05
1764746326.100498,1.0
1764746326.106591,0.95
1764746326.112951,1.0
1764746326.1191292,0.93
1764746326.125387,0.95
1764746326.131628,1.0
1764746326.137974,0.84
1764746326.144119,0.97
1764746326.150387,1.05
1764746326.156618,0.86
1764746326.162974,0.95
1764746326.169174,1.0
1764746326.175412,1.07
1764746326.1817448,1.67
1764746326.1878982,2.39
1764746326.1941278,2.58
1764746326.200734,2.11
1764746326.2066612,0.85
1764746326.2128158,0.54
1764746326.219108,0.82
1764746326.225317,1.01
1764746326.23163,1.0
1764746326.23778,0.78
1764746326.2441118,0.94
1764746326.250457,1.01
1764746326.256599,0.82
1764746326.262858,0.94
1764746326.2691011,0.93
1764746326.2753742,0.91
1764746326.281791,1.0
1764746326.2878878,0.95
1764746326.294124,1.01
1764746326.3005,1.03
1764746326.3065758,0.94
1764746326.3128629,1.12
1764746326.319079,0.96
1764746326.325278,0.81
1764746326.3316412,0.92
1764746326.337845,0.79
1764746326.3441,0.87
1764746326.350375,0.95
1764746326.35659,0.84
1764746326.3627698,0.96
1764746326.3691242,0.94
1764746326.375318,0.87
1764746326.381569,1.03
1764746326.387808,0.97
1764746326.394131,1.09
1764746326.400745,0.97
1764746326.406533,0.74
1764746326.412852,0.98
1764746326.419096,1.06
1764746326.4254022,0.84
1764746326.431767,0.89
1764746326.437802,1.01
1764746326.444056,1.07
1764746326.45066,1.02
1764746326.456522,0.93
1764746326.462919,1.12
1764746326.469175,1.1
1764746326.47544,0.99
1764746326.481606,1.11
1764746326.48785,1.08
1764746326.494081,1.11
1764746326.500646,1.12
1764746326.506546,1.08
1764746326.512884,1.18
1764746326.519182,1.03
1764746326.525425,1.07
1764746326.5316072,1.2
1764746326.538058,1.09
1764746326.544155,1.13
1764746326.550447,1.18
1764746326.556513,1.11
1764746326.562805,1.18
1764746326.569176,1.11
1764746326.575309,1.1
1764746326.5815868,1.25
1764746326.587775,1.21
1764746326.594173,1.29
1764746326.600385,1.35
1764746326.606507,1.23
1764746326.61286,1.49
1764746326.619103,1.52
1764746326.625303,1.4
1764746326.631571,1.46
1764746326.6396449,1.39
1764746326.689595,1.29
1764746326.6976,1.15
1764746326.697741,1.04
1764746326.697854,1.19
1764746326.697963,1.22
1764746326.7037451,1.16
1764746326.703866,1.2
1764746326.703978,1.14
1764746326.7040598,1.17
1764746326.7041469,1.19
1764746326.721472,1.17
1764746326.721992,1.3
1764746326.722239,1.2
1764746326.725248,1.12
1764746326.7315369,1.55
1764746326.739559,2.27
1764746326.7440069,2.9
1764746326.752075,2.83
1764746326.756473,1.77
1764746326.762769,0.85
1764746326.769127,1.01
1764746326.7753558,1.31
1764746326.781646,1.39
1764746326.7878048,1.16
1764746326.794147,1.21
1764746326.800621,1.31
1764746326.806465,1.19
1764746326.8126888,1.31
1764746326.818977,1.35
1764746326.825175,1.32
1764746326.831442,1.38
1764746326.8377678,1.31
1764746326.843888,1.37
1764746326.850719,1.5
1764746326.856354,1.44
1764746326.862783,1.51
1764746326.869144,1.47
1764746326.875235,1.4
1764746326.8815172,1.58
1764746326.88775,1.52
1764746326.8940969,1.57
1764746326.900534,1.64
1764746326.906362,1.57
1764746326.912729,1.69
1764746326.919017,1.69
1764746326.925216,1.67
1764746326.9314508,1.73
1764746326.937925,1.66
1764746326.944145,1.75
1764746326.950322,1.82
1764746326.956409,1.7
1764746326.96275,1.8
1764746326.969289,1.74
1764746326.975119,1.64
1764746326.981547,1.83
1764746326.987684,1.78
1764746326.993988,1.74
1764746327.0003798,1.81
1764746327.006335,1.73
1764746327.01268,1.88
1764746327.018935,1.87
1764746327.02511,1.77
1764746327.0313668,1.85
1764746327.037641,1.8
1764746327.043882,1.83
1764746327.0513148,1.89
1764746327.05645,1.8
1764746327.062767,1.89
1764746327.069074,1.85
1764746327.075148,1.82
1764746327.0817568,1.92
1764746327.0877929,1.77
1764746327.093933,1.88
1764746327.10017,1.99
1764746327.106438,1.82
1764746327.112798,1.89
1764746327.119025,1.86
1764746327.125108,1.9
1764746327.131501,2.08
1764746327.137729,1.98
1764746327.143904,2.01
1764746327.1504042,2.11
1764746327.156405,2.08
1764746327.162824,2.21
1764746327.168944,2.17
1764746327.175212,2.06
1764746327.181441,2.19
1764746327.187745,1.95
1764746327.194062,1.79
1764746327.20041,1.92
1764746327.206493,1.82
1764746327.2127209,1.85
1764746327.218966,1.87
1764746327.225139,1.9
1764746327.231381,1.85
1764746327.237653,1.75
1764746327.244041,1.88
1764746327.250308,1.95
1764746327.256373,1.88
1764746327.262609,1.94
1764746327.2689312,1.87
1764746327.2751849,2.11
1764746327.281478,2.93
1764746327.287749,3.16
1764746327.294006,3.16
1764746327.300394,3.09
1764746327.306416,1.71
1764746327.312605,1.36
1764746327.318938,2.01
1764746327.325076,2.1
1764746327.3313868,1.93
1764746327.3376472,1.86
1764746327.3439062,2.01
1764746327.350239,2.0
1764746327.356417,1.87
1764746327.362502,2.0
1764746327.368974,1.99
1764746327.375199,2.09
1764746327.381324,2.2
1764746327.387563,2.03
1764746327.39387,2.04
1764746327.4001842,2.05
1764746327.406324,1.94
1764746327.4125068,2.18
1764746327.419111,2.13
1764746327.425074,2.02
1764746327.431301,2.17
1764746327.437512,2.09
1764746327.443855,2.24
1764746327.450113,2.21
1764746327.456258,2.1
1764746327.46255,2.31
1764746327.46891,2.25
1764746327.475105,2.21
1764746327.48134,2.47
1764746327.487625,2.34
1764746327.493737,2.17
1764746327.50007,2.25
1764746327.506384,2.3
1764746327.5125709,2.46
1764746327.518736,2.35
1764746327.5250628,2.24
1764746327.5313091,2.39
1764746327.537529,2.31
1764746327.543811,2.35
1764746327.550124,2.34
1764746327.556342,2.34
1764746327.562537,2.58
1764746327.568717,2.32
1764746327.5752058,2.34
1764746327.5812962,2.59
1764746327.587575,2.33
1764746327.593801,2.35
1764746327.6000729,2.5
1764746327.60629,2.39
1764746327.612573,2.44
1764746327.61885,2.39
1764746327.625106,2.52
1764746327.631298,2.65
1764746327.637576,2.61
1764746327.643796,2.61
1764746327.6501272,2.62
1764746327.6563148,2.54
1764746327.662527,2.73
1764746327.668719,2.69
1764746327.675172,2.69
1764746327.6812549,2.82
1764746327.687445,2.66
1764746327.6937668,2.88
1764746327.70016,2.93
1764746327.706285,2.57
1764746327.712564,2.77
1764746327.718703,2.82
1764746327.725028,2.58
1764746327.731283,2.63
1764746327.737563,2.38
1764746327.743752,2.53
1764746327.750022,2.63
1764746327.756223,2.29
1764746327.762485,2.31
1764746327.768725,2.2
1764746327.774964,2.2
1764746327.78129,2.38
1764746327.787478,2.11
1764746327.793698,2.18
1764746327.799969,2.3
1764746327.806198,2.25
1764746327.812495,2.57
1764746327.818809,3.16
1764746327.8251672,3.17
1764746327.8313012,3.17
1764746327.837478,3.14
1764746327.8436968,2.07
1764746327.849995,1.37
1764746327.856273,1.9
1764746327.8624918,2.28
1764746327.868756,1.79
1764746327.875029,1.73
1764746327.881387,2.13
1764746327.887576,1.88
1764746327.893748,1.84
1764746327.900013,2.14
1764746327.906415,2.01
1764746327.9126568,2.02
1764746327.918755,2.24
1764746327.924989,2.29
1764746327.931638,1.72
1764746327.937535,1.48
1764746327.943732,2.05
1764746327.950132,2.14
1764746327.956384,1.71
1764746327.962564,1.9
1764746327.968819,1.7
1764746327.975051,1.73
1764746327.981351,1.94
1764746327.987471,1.71
1764746327.993771,1.81
1764746328.000022,1.73
1764746328.006315,1.7
1764746328.012474,1.83
1764746328.018827,1.6
1764746328.0250251,1.52
1764746328.0329769,1.76
1764746328.037534,1.56
1764746328.043914,1.65
1764746328.0502012,1.6
1764746328.056283,1.39
1764746328.06242,1.58
1764746328.068702,1.37
1764746328.075017,1.39
1764746328.081586,1.59
1764746328.087627,1.4
1764746328.0937212,1.6
1764746328.1002612,1.46
1764746328.106145,1.15
1764746328.112479,1.45
1764746328.118731,1.23
1764746328.124971,1.06
1764746328.131254,1.3
1764746328.13759,1.13
1764746328.1437829,1.25
1764746328.150214,1.14
1764746328.1711628,0.87
1764746328.207492,1.21
1764746328.207674,1.31
1764746328.218543,1.06
1764746328.2199302,0.94
1764746328.2200289,0.77
1764746328.220125,1.31
1764746328.221437,1.3
1764746328.2234151,0.9
1764746328.225661,1.08
1764746328.226489,1.28
1764746328.226613,1.22
1764746328.234669,1.17
1764746328.237449,1.15
1764746328.243775,1.26
1764746328.250028,1.15
1764746328.256194,0.82
1764746328.262472,0.97
1764746328.268772,0.91
1764746328.275031,0.78
1764746328.281421,0.82
1764746328.287485,0.73
1764746328.2943318,0.81
1764746328.3003929,0.91
1764746328.306203,0.73
1764746328.312418,0.84
1764746328.318799,0.94
1764746328.325011,0.87
1764746328.331409,0.88
1764746328.337522,0.75
1764746328.343689,1.34
1764746328.350058,2.25
1764746328.3563032,2.56
1764746328.36242,2.47
1764746328.3687592,1.25
1764746328.374926,0.15
1764746328.381504,0.72
1764746328.387456,0.95
1764746328.3937,0.81
1764746328.40001,0.72
1764746328.406183,0.58
1764746328.412359,0.95
1764746328.418686,1.06
1764746328.424904,0.86
1764746328.4313831,0.88
1764746328.437429,0.78
1764746328.443582,0.96
1764746328.449894,1.08
1764746328.456107,0.95
1764746328.46242,1.02
1764746328.468629,0.96
1764746328.47492,1.05
1764746328.48147,1.35
1764746328.487392,1.05
1764746328.493643,0.88
1764746328.499934,1.01
1764746328.506133,1.09
1764746328.512446,1.3
1764746328.518528,1.02
1764746328.524859,0.99
1764746328.5315268,1.24
1764746328.53739,1.08
1764746328.543568,0.97
1764746328.549987,1.19
1764746328.5560489,1.19
1764746328.562376,1.17
1764746328.5685608,1.19
1764746328.574806,1.21
1764746328.581507,1.2
1764746328.587265,1.01
1764746328.593537,0.96
1764746328.600011,1.12
1764746328.606059,1.17
1764746328.612324,1.27
1764746328.6185532,0.98
1764746328.624802,0.84
1764746328.632559,1.18
1764746328.63748,1.2
1764746328.643818,1.13
1764746328.650172,1.08
1764746328.6561978,0.75
1764746328.662412,1.23
1764746328.668624,1.35
1764746328.674887,1.0
1764746328.681257,1.09
1764746328.687318,1.2
1764746328.693576,1.23
1764746328.70015,0.98
1764746328.7061582,0.86
1764746328.712294,1.19
1764746328.718637,1.14
1764746328.724751,1.41
1764746328.7317529,1.52
1764746328.7373471,1.14
1764746328.743561,1.11
1764746328.750187,1.45
1764746328.756086,1.52
1764746328.762275,1.44
1764746328.7684538,1.15
1764746328.774812,1.25
1764746328.781537,1.43
1764746328.787355,1.21
1764746328.793568,1.24
1764746328.8000782,1.19
1764746328.806074,1.11
1764746328.812258,1.2
1764746328.818666,1.03
1764746328.824888,0.92
1764746328.831139,1.09
1764746328.837328,1.01
1764746328.843627,1.07
1764746328.8503091,1.17
1764746328.856104,1.07
1764746328.8622952,1.07
1764746328.868617,1.24
1764746328.874914,1.87
1764746328.8811111,2.69
1764746328.887279,2.79
1764746328.8936262,2.35
1764746328.900198,0.98
1764746328.906062,0.42
1764746328.912251,0.93
1764746328.918677,1.11
1764746328.9248588,0.95
1764746328.931051,1.05
1764746328.9373178,1.02
1764746328.943594,1.17
1764746328.949897,1.01
1764746328.956068,0.87
1764746328.962184,1.14
1764746328.968647,1.02
1764746328.974846,0.96
1764746328.981127,1.14
1764746328.9873128,1.16
1764746328.993522,1.12
1764746328.999881,1.18
1764746329.006023,1.06
1764746329.012248,1.12
1764746329.018519,1.38
1764746329.02485,1.38
1764746329.0310578,1.27
1764746329.037399,1.22
1764746329.0436978,1.5
1764746329.049979,1.57
1764746329.056188,1.42
1764746329.0622232,1.38
1764746329.0685928,1.44
1764746329.074804,1.59
1764746329.081854,1.63
1764746329.087396,1.42
1764746329.0935922,1.64
1764746329.099928,1.7
1764746329.1060932,1.51
1764746329.112483,1.64
1764746329.118701,1.72
1764746329.124693,1.8
1764746329.1313422,1.84
1764746329.137397,1.79
1764746329.1437702,1.87
1764746329.1500428,1.73
1764746329.1559622,1.63
1764746329.162285,1.78
1764746329.168565,1.77
1764746329.1750138,1.74
1764746329.181081,1.81
1764746329.1873732,1.82
1764746329.193513,1.93
1764746329.200863,2.01
1764746329.2061162,1.9
1764746329.212381,1.95
1764746329.2184708,1.89
1764746329.2248802,1.98
1764746329.231093,2.07
1764746329.237386,1.8
1764746329.2436328,1.9
1764746329.249813,2.14
1764746329.256156,1.98
1764746329.262638,2.06
1764746329.268602,1.99
1764746329.274909,1.91
1764746329.281099,2.16
1764746329.287296,2.25
1764746329.29354,2.33
1764746329.299844,2.26
1764746329.306182,2.04
1764746329.312371,2.3
1764746329.318599,2.13
1764746329.3249128,1.96
1764746329.331064,1.98
1764746329.337329,1.83
1764746329.343683,1.97
1764746329.349862,1.84
1764746329.3560262,1.83
1764746329.36226,2.06
1764746329.368595,1.82
1764746329.374739,1.86
1764746329.3816152,2.04
1764746329.387246,1.92
1764746329.393478,1.92
1764746329.401014,1.77
1764746329.4060092,1.84
1764746329.412238,2.33
1764746329.418505,2.84
1764746329.424735,3.16
1764746329.4311051,3.16
1764746329.437188,3.09
1764746329.443462,1.8
1764746329.449726,1.18
1764746329.45597,1.75
1764746329.462441,2.04
1764746329.468411,1.53
1764746329.474599,1.6
1764746329.481689,1.96
1764746329.487061,1.73
1764746329.493523,1.73
1764746329.499817,1.74
1764746329.505985,1.66
1764746329.512243,1.87
1764746329.518453,1.75
1764746329.524853,1.79
1764746329.531195,1.9
1764746329.537198,1.69
1764746329.543454,1.87
1764746329.549723,1.91
1764746329.556,1.68
1764746329.562389,1.86
1764746329.568469,1.72
1764746329.574775,1.78
1764746329.581837,1.95
1764746329.587181,1.75
1764746329.5935009,1.86
1764746329.599912,1.81
1764746329.606109,1.82
1764746329.612114,2.0
1764746329.61843,1.81
1764746329.624649,1.84
1764746329.6314769,1.92
1764746329.637175,1.72
1764746329.6435149,1.86
1764746329.649705,1.84
1764746329.6559849,1.68
1764746329.662452,1.77
1764746329.668406,1.61
1764746329.6747122,1.66
1764746329.682119,1.78
1764746329.687286,1.6
1764746329.693625,1.58
1764746329.6998231,1.64
1764746329.705911,1.72
1764746329.712148,1.79
1764746329.718387,1.55
1764746329.724879,1.63
1764746329.731646,1.77
1764746329.737321,1.61
1764746329.743498,1.65
1764746329.749758,1.63
1764746329.755862,1.57
1764746329.762068,1.67
1764746329.7684522,1.53
1764746329.774715,1.55
1764746329.781684,1.58
1764746329.787372,1.44
1764746329.793511,1.59
1764746329.799708,1.54
1764746329.805842,1.42
1764746329.812139,1.54
1764746329.8183758,1.44
1764746329.8457432,1.44
1764746329.88511,1.52
1764746329.885385,1.42
1764746329.885516,1.56
1764746329.885622,1.65
1764746329.910756,1.59
1764746329.911155,1.65
1764746329.9112802,1.63
1764746329.911433,1.77
1764746329.9115698,1.87
1764746329.911682,1.65
1764746329.911878,1.75
1764746329.912098,1.75
1764746329.91225,1.48
1764746329.912373,1.55
1764746329.918365,1.53
1764746329.925691,1.46
1764746329.93529,1.54
1764746329.937103,1.49
1764746329.943295,1.56
1764746329.9505842,1.47
1764746329.9561868,1.36
1764746329.962108,1.54
1764746329.968472,1.54
1764746329.974558,1.52
1764746329.980982,1.54
1764746329.987102,1.57
1764746329.993338,2.02
1764746329.999656,2.82
1764746330.005822,3.06
1764746330.012092,2.84
1764746330.018233,1.59
1764746330.024605,0.87
1764746330.030817,1.39
1764746330.037138,1.5
1764746330.043217,1.48
1764746330.049581,1.54
1764746330.055839,1.51
1764746330.062024,1.64
1764746330.068299,1.58
1764746330.074546,1.56
1764746330.080842,1.71
1764746330.087121,1.64
1764746330.093329,1.72
1764746330.0994902,1.81
1764746330.105813,1.76
1764746330.11192,1.8
1764746330.118149,1.63
1764746330.124525,1.53
1764746330.130995,1.55
1764746330.136968,1.42
1764746330.143196,1.48
1764746330.14952,1.62
1764746330.15572,1.58
1764746330.161929,1.59
1764746330.1681762,1.54
1764746330.17455,1.54
1764746330.18076,1.52
1764746330.187037,1.4
1764746330.193207,1.51
1764746330.199525,1.48
1764746330.205757,1.31
1764746330.211984,1.41
1764746330.218198,1.4
1764746330.2245,1.34
1764746330.230797,1.36
1764746330.237035,1.28
1764746330.243169,1.28
1764746330.249599,1.35
1764746330.255729,1.28
1764746330.261981,1.29
1764746330.268186,1.23
1764746330.274466,1.27
1764746330.281047,1.37
1764746330.2870111,1.22
1764746330.293175,1.27
1764746330.299477,1.34
1764746330.305779,1.23
1764746330.3120818,1.3
1764746330.31838,1.29
1764746330.3246589,1.21
1764746330.3308108,1.33
1764746330.336952,1.27
1764746330.343497,1.21
1764746330.349589,1.3
1764746330.355802,1.3
1764746330.362259,1.3
1764746330.368574,1.23
1764746330.374511,1.29
1764746330.381057,1.33
1764746330.387069,1.21
1764746330.393482,1.27
1764746330.399536,1.3
1764746330.4058912,1.15
1764746330.412053,1.23
1764746330.418227,1.26
1764746330.4244108,1.22
1764746330.430793,1.31
1764746330.437178,1.29
1764746330.4432158,1.34
1764746330.449376,1.5
1764746330.455799,1.5
1764746330.461919,1.56
1764746330.468268,1.62
1764746330.474435,1.68
1764746330.4809,1.78
1764746330.48704,1.69
1764746330.493262,1.68
1764746330.4994502,1.55
1764746330.50572,1.35
1764746330.512182,1.43
1764746330.518395,1.41
1764746330.524596,1.32
1764746330.531044,1.47
1764746330.537025,1.49
1764746330.543231,1.46
1764746330.549421,1.49
1764746330.555744,1.43
1764746330.562093,1.41
1764746330.568265,1.38
1764746330.574546,1.46
1764746330.5808058,1.48
1764746330.586965,1.55
1764746330.593202,2.31
1764746330.599456,3.1
1764746330.605623,2.88
1764746330.612035,2.11
1764746330.6180952,1.0
1764746330.6244109,1.03
1764746330.630796,1.55
1764746330.636894,1.4
1764746330.643229,1.21
1764746330.649482,1.28
1764746330.6556668,1.3
1764746330.662286,1.33
1764746330.6681652,1.31
1764746330.674518,1.31
1764746330.6807868,1.39
1764746330.686848,1.36
1764746330.693381,1.41
1764746330.699615,1.51
1764746330.705665,1.46
1764746330.712009,1.58
1764746330.718369,1.6
1764746330.724399,1.57
1764746330.730692,1.72
1764746330.736852,1.79
1764746330.743354,1.96
1764746330.749381,2.13
1764746330.755611,1.62
1764746330.762007,1.49
1764746330.768173,1.79
1764746330.774346,1.87
1764746330.780643,1.86
1764746330.7868538,1.78
1764746330.7929978,1.81
1764746330.799407,1.81
1764746330.80572,1.63
1764746330.811944,1.7
1764746330.818123,1.66
1764746330.8243809,1.48
1764746330.8307168,1.51
1764746330.8369431,1.54
1764746330.843176,1.56
1764746330.849426,1.67
1764746330.8556669,1.61
1764746330.861966,1.61
1764746330.8680289,1.53
1764746330.874379,1.53
1764746330.880619,1.66
1764746330.886883,1.62
1764746330.893114,1.63
1764746330.899341,1.73
1764746330.905657,1.67
1764746330.911881,1.74
1764746330.918082,1.67
1764746330.924306,1.64
1764746330.930749,1.76
1764746330.936877,1.67
1764746330.943059,1.69
1764746330.949268,1.72
1764746330.955497,1.64
1764746330.9617689,1.69
1764746330.968058,1.69
1764746330.974302,1.57
1764746330.9808068,1.62
1764746330.9867709,1.55
1764746330.993001,1.5
1764746330.9992971,1.61
1764746331.005512,1.62
1764746331.011787,1.66
1764746331.017993,1.73
1764746331.024382,1.74
1764746331.030712,1.85
1764746331.036818,1.82
1764746331.043075,1.91
1764746331.0493288,1.89
1764746331.055655,1.71
1764746331.061769,1.76
1764746331.06805,1.54
1764746331.074369,1.33
1764746331.0805829,1.44
1764746331.086893,1.34
1764746331.093159,1.36
1764746331.099348,1.36
1764746331.105599,1.3
1764746331.111833,1.44
1764746331.118106,1.27
1764746331.124366,1.19
1764746331.130744,1.38
1764746331.136857,1.28
1764746331.143258,1.36
1764746331.149364,1.45
1764746331.155586,1.66
1764746331.1618729,2.49
1764746331.168007,3.0
1764746331.174312,2.78
1764746331.1808698,2.06
1764746331.186783,1.17
1764746331.193333,1.56
1764746331.199331,1.56
1764746331.205565,1.18
1764746331.2122712,1.47
1764746331.21821,1.56
1764746331.224409,1.51
1764746331.230737,1.5
1764746331.23681,1.49
1764746331.242988,1.62
1764746331.249419,1.6
1764746331.255615,1.54
1764746331.262153,1.64
1764746331.2679942,1.61
1764746331.2742789,1.7
1764746331.2806132,1.82
1764746331.286888,1.68
1764746331.293116,1.72
1764746331.299315,1.8
1764746331.308209,1.82
1764746331.3302798,1.94
1764746331.330475,1.81
1764746331.330645,1.82
1764746331.339186,1.93
1764746331.34014,1.8
1764746331.3478642,1.8
1764746331.350618,1.88
1764746331.355796,1.86
1764746331.363888,1.9
1764746331.3682508,1.78
1764746331.374337,1.74
1764746331.380627,1.87
1764746331.39325,1.74
1764746331.393643,1.73
1764746331.400814,1.73
1764746331.406045,1.61
1764746331.411977,1.71
1764746331.418106,1.66
1764746331.424436,1.69
1764746331.430627,1.71
1764746331.436793,1.6
1764746331.443084,1.66
1764746331.44929,1.7
1764746331.455638,1.66
1764746331.461747,1.79
1764746331.468061,1.72
1764746331.47459,1.74
1764746331.480583,1.79
1764746331.486758,1.71
1764746331.493464,1.83
1764746331.499352,1.84
1764746331.50557,1.66
1764746331.513469,1.71
1764746331.518095,1.8
1764746331.5243452,1.83
1764746331.530605,1.77
1764746331.536747,1.61
1764746331.5430589,1.78
1764746331.5492768,1.88
1764746331.555539,1.8
1764746331.5616908,1.85
1764746331.5680408,1.78
1764746331.574249,1.85
1764746331.580599,1.96
1764746331.5867689,1.88
1764746331.59305,2.01
1764746331.599204,2.01
1764746331.6054158,1.91
1764746331.611639,1.96
1764746331.6179898,1.8
1764746331.624473,1.68
1764746331.631001,1.62
1764746331.6367218,1.4
1764746331.643036,1.52
1764746331.649467,1.66
1764746331.655514,1.62
1764746331.661778,1.62
1764746331.66802,1.52
1764746331.674169,1.59
1764746331.680577,1.64
1764746331.686715,1.48
1764746331.693506,1.57
1764746331.699391,1.54
1764746331.705479,1.59
1764746331.711791,1.99
1764746331.718115,2.59
1764746331.7242382,3.07
1764746331.730602,2.91
1764746331.736767,1.72
1764746331.74298,1.02
1764746331.749141,1.33
1764746331.755429,1.49
1764746331.76163,1.5
1764746331.767944,1.29
1764746331.774132,1.31
1764746331.780954,1.49
1764746331.78688,1.37
1764746331.792921,1.4
1764746331.799124,1.36
1764746331.8054771,1.3
1764746331.811654,1.49
1764746331.817852,1.38
1764746331.824211,1.41
1764746331.830634,1.49
1764746331.836832,1.41
1764746331.842943,1.62
1764746331.849262,1.55
1764746331.8553112,1.4
1764746331.861639,1.56
1764746331.867805,1.57
1764746331.874083,1.58
1764746331.880426,1.67
1764746331.886784,1.47
1764746331.892902,1.59
1764746331.899161,1.57
1764746331.905385,1.41
1764746331.911655,1.44
1764746331.917899,1.39
1764746331.92419,1.58
1764746331.9307818,1.61
1764746331.936746,1.4
1764746331.942861,1.44
1764746331.949145,1.48
1764746331.9553568,1.56
1764746331.961621,1.71
1764746331.967857,1.46
1764746331.9741251,1.52
1764746331.980418,1.64
1764746331.986645,1.46
1764746331.992913,1.67
1764746331.999253,1.6
1764746332.005467,1.41
1764746332.011641,1.72
1764746332.017938,1.56
1764746332.024088,1.54
1764746332.030494,1.68
1764746332.036778,1.59
1764746332.042829,1.79
1764746332.04923,1.62
1764746332.055278,1.54
1764746332.0616698,1.82
1764746332.067809,1.57
1764746332.0739992,1.66
1764746332.080384,1.75
1764746332.086635,1.53
1764746332.092844,1.84
1764746332.099127,1.7
1764746332.105365,1.61
1764746332.111625,1.87
1764746332.117902,1.71
1764746332.124077,1.76
1764746332.130378,1.81
1764746332.136652,1.69
1764746332.142836,2.05
1764746332.14912,1.87
1764746332.15529,1.71
1764746332.16156,1.88
1764746332.167789,1.5
1764746332.1741629,1.45
1764746332.180816,1.57
1764746332.1868238,1.42
1764746332.192818,1.6
1764746332.199222,1.46
1764746332.205427,1.41
1764746332.21153,1.67
1764746332.21777,1.5
1764746332.2240992,1.6
1764746332.230338,1.65
1764746332.236703,1.36
1764746332.2429812,1.6
1764746332.2492712,1.53
1764746332.255265,1.85
1764746332.261653,2.93
1764746332.2678049,3.08
1764746332.274035,2.74
1764746332.280361,1.67
1764746332.286627,0.85
1764746332.2928588,1.14
1764746332.2990358,1.52
1764746332.3053818,1.63
1764746332.311703,1.54
1764746332.317873,1.15
1764746332.324045,1.36
1764746332.330374,1.56
1764746332.336534,1.29
1764746332.342936,1.45
1764746332.349086,1.36
1764746332.355295,1.3
1764746332.361572,1.47
1764746332.3677928,1.25
1764746332.373995,1.4
1764746332.380648,1.32
1764746332.386453,1.23
1764746332.392765,1.57
1764746332.399172,1.38
1764746332.405271,1.28
1764746332.411508,1.6
1764746332.417731,1.46
1764746332.423939,1.43
1764746332.4303029,1.48
1764746332.436579,1.37
1764746332.442809,1.5
1764746332.448926,1.38
1764746332.455336,1.4
1764746332.4614642,1.53
1764746332.467678,1.12
1764746332.473918,1.23
1764746332.480265,1.58
1764746332.486416,1.46
1764746332.49281,1.49
1764746332.498993,1.29
1764746332.505195,1.42
1764746332.511623,1.61
1764746332.51771,1.2
1764746332.523927,1.26
1764746332.530476,1.39
1764746332.5364962,1.15
1764746332.542762,1.3
1764746332.54897,1.25
1764746332.555232,1.25
1764746332.561458,1.29
1764746332.56773,1.24
1764746332.573968,1.47
1764746332.580258,1.4
1764746332.586468,1.15
1764746332.592753,1.46
1764746332.599048,1.36
1764746332.6051478,1.2
1764746332.611466,1.36
1764746332.6176589,1.07
1764746332.6239,1.35
1764746332.630322,1.36
1764746332.636533,1.08
1764746332.642984,1.25
1764746332.6489222,1.23
1764746332.6551611,1.4
1764746332.6614552,1.54
1764746332.667702,1.19
1764746332.673909,1.34
1764746332.680243,1.56
1764746332.6864798,1.41
1764746332.692804,1.43
1764746332.698974,1.34
1764746332.705138,1.24
1764746332.711466,1.4
1764746332.7177029,1.21
1764746332.72386,1.13
1764746332.7302148,1.04
1764746332.736405,0.99
1764746332.74275,1.29
1764746332.74892,1.11
1764746332.7551548,0.91
1764746332.761426,1.14
1764746332.76762,1.0
1764746332.773803,1.18
1764746332.780252,1.19
1764746332.786426,0.96
1764746332.792747,1.28
1764746332.798898,1.52
1764746332.805284,2.04
1764746332.811518,2.81
1764746332.817736,2.61
1764746332.823806,1.59
1764746332.8303812,0.5
1764746332.8407192,0.53
1764746332.85191,1.17
1764746332.862367,1.27
1764746332.868903,0.95
1764746332.8692842,1.0
1764746332.869619,1.02
1764746332.973206,1.16
1764746332.973553,1.14
1764746332.976676,0.96
1764746332.977222,1.15
1764746332.978282,1.06
1764746332.9793432,1.01
1764746332.9796631,1.18
1764746332.979949,1.04
1764746332.980238,1.34
1764746332.9808729,1.41
1764746332.981859,1.08
1764746332.982497,1.28
1764746332.9829051,1.36
1764746332.983199,1.34
1764746332.983525,1.53
1764746332.983849,1.34
1764746332.984386,1.39
1764746332.9847932,1.51
1764746332.9869068,1.4
1764746332.992705,1.61
1764746332.999684,1.42
1764746333.005234,1.25
1764746333.0115242,1.65
1764746333.017749,1.6
1764746333.024346,1.61
1764746333.030245,1.53
1764746333.036723,1.37
1764746333.042861,1.57
1764746333.049025,1.59
1764746333.05538,1.68
1764746333.061481,1.81
1764746333.067796,1.53
1764746333.073947,1.64
1764746333.081234,1.72
1764746333.086447,1.51
1764746333.092608,1.77
1764746333.0989609,1.64
1764746333.105199,1.59
1764746333.1126049,1.81
1764746333.11763,1.69
1764746333.1239,1.88
1764746333.1302872,1.85
1764746333.136401,1.64
1764746333.1426811,2.05
1764746333.148932,1.87
1764746333.155176,1.77
1764746333.161599,2.09
1764746333.167576,1.75
1764746333.173926,1.86
1764746333.180166,1.96
1764746333.1863492,1.75
1764746333.1926131,1.98
1764746333.19883,1.84
1764746333.205169,1.87
1764746333.211475,2.17
1764746333.217684,1.83
1764746333.223894,2.1
1764746333.2302709,2.33
1764746333.236494,2.02
1764746333.24259,2.2
1764746333.248859,2.12
1764746333.255064,1.97
1764746333.2613509,2.1
1764746333.267562,1.81
1764746333.273848,1.94
1764746333.2800908,1.95
1764746333.2864,1.65
1764746333.292705,1.89
1764746333.298837,1.76
1764746333.30527,1.75
1764746333.311494,1.97
1764746333.317824,1.73
1764746333.3240252,1.89
1764746333.330282,1.92
1764746333.336341,1.68
1764746333.342658,1.99
1764746333.348963,2.04
1764746333.3552792,2.58
1764746333.361472,3.16
1764746333.367592,3.16
1764746333.373941,3.14
1764746333.3800871,1.89
1764746333.386285,0.97
1764746333.392603,1.95
1764746333.3987992,2.04
1764746333.4050078,1.69
1764746333.411542,1.83
1764746333.4175391,1.72
1764746333.423896,1.86
1764746333.430142,1.9
1764746333.436458,1.71
1764746333.4426508,1.94
1764746333.4487948,1.77
1764746333.4550111,1.74
1764746333.4614882,1.96
1764746333.467708,1.78
1764746333.4741278,1.88
1764746333.480718,1.96
1764746333.486464,1.86
1764746333.492606,2.05
1764746333.4987898,1.84
1764746333.505065,1.75
1764746333.512064,2.08
1764746333.517493,1.96
1764746333.523788,1.99
1764746333.53009,1.99
1764746333.536486,1.84
1764746333.54267,2.07
1764746333.548739,1.94
1764746333.554989,1.87
1764746333.5613482,2.03
1764746333.567504,1.84
1764746333.573846,1.88
1764746333.58003,1.95
1764746333.5862012,1.77
1764746333.592583,1.91
1764746333.59869,1.79
1764746333.604974,1.71
1764746333.611285,1.88
1764746333.617658,1.75
1764746333.623741,1.82
1764746333.629994,1.85
1764746333.636209,1.67
1764746333.642576,1.83
1764746333.648701,1.74
1764746333.654995,1.72
1764746333.661269,1.88
1764746333.667562,1.71
1764746333.6739242,1.78
1764746333.68113,1.78
1764746333.68643,1.65
1764746333.692619,1.78
1764746333.698935,1.66
1764746333.705022,1.65
1764746333.711774,1.8
1764746333.717566,1.61
1764746333.723797,1.67
1764746333.7300448,1.7
1764746333.7362502,1.59
1764746333.74249,1.75
1764746333.748707,1.67
1764746333.7549891,1.61
1764746333.761329,1.74
1764746333.767433,1.59
1764746333.773672,1.7
1764746333.780024,1.79
1764746333.7863328,1.69
1764746333.792532,1.79
1764746333.798768,1.81
1764746333.805082,1.85
1764746333.812211,1.99
1764746333.8175418,1.77
1764746333.823741,1.84
1764746333.830057,1.77
1764746333.836268,1.55
1764746333.8426418,1.66
1764746333.84878,1.53
1764746333.855054,1.45
1764746333.86238,1.6
1764746333.867498,1.45
1764746333.87385,1.47
1764746333.8805609,1.49
1764746333.8862689,1.4
1764746333.892548,1.53
1764746333.898901,1.42
1764746333.905016,1.37
1764746333.911433,1.5
1764746333.9175,1.5
1764746333.9237,1.95
1764746333.930324,2.72
1764746333.9362078,2.89
1764746333.942492,2.66
1764746333.9487512,1.35
1764746333.954983,0.72
1764746333.961691,1.44
1764746333.9674869,1.47
1764746333.973757,1.33
1764746333.980031,1.36
1764746333.986121,1.33
1764746333.992457,1.47
1764746333.998696,1.39
1764746334.0049229,1.34
1764746334.011238,1.48
1764746334.0173912,1.4
1764746334.02381,1.45
1764746334.030051,1.51
1764746334.036128,1.42
1764746334.042447,1.53
1764746334.048734,1.46
1764746334.054911,1.46
1764746334.0613198,1.59
1764746334.067553,1.5
1764746334.073896,1.54
1764746334.08016,1.58
1764746334.086297,1.49
1764746334.0924108,1.61
1764746334.098644,1.55
1764746334.1049962,1.54
1764746334.1114008,1.68
1764746334.117331,1.54
1764746334.123853,1.57
1764746334.130007,1.6
1764746334.1362848,1.48
1764746334.142465,1.58
1764746334.14874,1.53
1764746334.154861,1.5
1764746334.161246,1.62
1764746334.1673338,1.46
1764746334.173609,1.51
1764746334.1798542,1.53
1764746334.186092,1.49
1764746334.192378,1.6
1764746334.198712,1.52
1764746334.2049768,1.45
1764746334.211169,1.6
1764746334.217301,1.52
1764746334.223713,1.54
1764746334.229844,1.57
1764746334.236091,1.41
1764746334.242513,1.52
1764746334.24858,1.46
1764746334.254834,1.39
1764746334.2612412,1.51
1764746334.267478,1.38
1764746334.2736251,1.46
1764746334.279905,1.52
1764746334.286046,1.35
1764746334.2923892,1.49
1764746334.298599,1.48
1764746334.304785,1.45
1764746334.311221,1.53
1764746334.3174038,1.39
1764746334.323614,1.43
1764746334.33,1.53
1764746334.336124,1.41
1764746334.3424351,1.49
1764746334.348678,1.47
1764746334.354849,1.52
1764746334.361349,1.69
1764746334.367303,1.51
1764746334.37356,1.63
1764746334.379894,1.8
1764746334.386079,1.7
1764746334.39232,1.73
1764746334.39861,1.7
1764746334.404895,1.62
1764746334.411177,1.53
1764746334.417407,1.33
1764746334.423543,1.42
1764746334.429941,1.48
1764746334.436019,1.32
1764746334.442374,1.44
1764746334.4486442,1.41
1764746334.454882,1.38
1764746334.461195,1.46
1764746334.467191,1.36
1764746334.473619,1.51
1764746334.479912,1.53
1764746334.486073,1.37
1764746334.492346,1.59
1764746334.498621,1.9
1764746334.50491,2.52
1764746334.5110998,3.1
1764746334.517361,2.8
1764746334.523595,1.81
1764746334.529822,1.06
1764746334.536289,1.26
1764746334.5423949,1.6
1764746334.548691,1.49
1764746334.555112,1.4
1764746334.561192,1.54
1764746334.5673769,1.42
1764746334.57375,1.48
1764746334.579963,1.54
1764746334.5861871,1.43
1764746334.592426,1.57
1764746334.598666,1.52
1764746334.604834,1.46
1764746334.612166,1.53
1764746334.617339,1.44
1764746334.6236968,1.54
1764746334.62994,1.58
1764746334.635981,1.53
1764746334.642368,1.59
1764746334.648635,1.52
1764746334.654887,1.52
1764746334.661112,1.63
1764746334.667374,1.48
1764746334.6739168,1.62
1764746334.6838772,1.65
1764746334.687663,1.5
1764746334.707398,1.67
1764746334.711394,1.63
1764746334.725575,1.55
1764746334.726012,1.66
1764746334.729391,1.55
1764746334.7295702,1.62
1764746334.729717,1.64
1764746334.736047,1.53
1764746334.744284,1.68
1764746334.7504032,1.64
1764746334.75664,1.55
1764746334.762317,1.7
1764746334.772348,1.59
1764746334.777351,1.59
1764746334.7800262,1.6
1764746334.786081,1.56
1764746334.7924109,1.72
1764746334.804717,1.62
1764746334.805013,1.54
1764746334.8116102,1.69
1764746334.817225,1.65
1764746334.823531,1.66
1764746334.82984,1.64
1764746334.8360589,1.64
1764746334.842357,1.78
1764746334.848436,1.64
1764746334.85481,1.6
1764746334.861099,1.7
1764746334.867239,1.59
1764746334.873597,1.55
1764746334.8800058,1.58
1764746334.886158,1.51
1764746334.892152,1.63
1764746334.898499,1.51
1764746334.904784,1.44
1764746334.911069,1.58
1764746334.9171689,1.46
1764746334.923609,1.54
1764746334.929847,1.65
1764746334.935948,1.61
1764746334.942181,1.84
1764746334.948486,1.85
1764746334.95484,1.77
1764746334.961833,1.88
1764746334.967367,1.79
1764746334.973587,1.84
1764746334.980264,1.76
1764746334.985999,1.53
1764746334.99235,1.64
1764746334.998526,1.56
1764746335.0048692,1.52
1764746335.011132,1.59
1764746335.017193,1.4
1764746335.023509,1.52
1764746335.029788,1.55
1764746335.036166,1.45
1764746335.042285,1.55
1764746335.048558,1.37
1764746335.0549388,1.45
1764746335.061092,1.65
1764746335.067238,1.77
1764746335.073778,2.58
1764746335.079966,3.09
1764746335.086123,2.73
1764746335.092272,1.9
1764746335.098757,0.94
1764746335.1049442,1.13
1764746335.112159,1.45
1764746335.117339,1.29
1764746335.1235929,1.42
1764746335.129868,1.41
1764746335.135983,1.3
1764746335.1422,1.48
1764746335.148628,1.42
1764746335.154714,1.4
1764746335.1614232,1.45
1764746335.167136,1.27
1764746335.173488,1.46
1764746335.180264,1.52
1764746335.1862028,1.25
1764746335.192299,1.49
1764746335.198514,1.44
1764746335.2047648,1.3
1764746335.211117,1.48
1764746335.2171829,1.42
1764746335.223464,1.56
1764746335.22978,1.58
1764746335.236075,1.41
1764746335.242259,1.58
1764746335.248682,1.4
1764746335.254706,1.41
1764746335.261515,1.67
1764746335.267301,1.53
1764746335.2734668,1.61
1764746335.279833,1.58
1764746335.285907,1.49
1764746335.2922418,1.63
1764746335.298712,1.48
1764746335.3048892,1.55
1764746335.310948,1.7
1764746335.31726,1.49
1764746335.323393,1.67
1764746335.330187,1.61
1764746335.3360891,1.34
1764746335.342268,1.61
1764746335.3486452,1.53
1764746335.3547158,1.51
1764746335.361381,1.61
1764746335.367257,1.41
1764746335.373394,1.57
1764746335.379968,1.55
1764746335.386032,1.39
1764746335.392203,1.64
1764746335.398466,1.49
1764746335.40474,1.42
1764746335.411412,1.57
1764746335.4171588,1.42
1764746335.423369,1.55
1764746335.4297442,1.45
1764746335.436198,1.25
1764746335.4423108,1.45
1764746335.448416,1.32
1764746335.4546392,1.34
1764746335.461298,1.45
1764746335.4672089,1.23
1764746335.47338,1.41
1764746335.4802291,1.44
1764746335.486018,1.45
1764746335.4922822,1.63
1764746335.498589,1.53
1764746335.504728,1.59
1764746335.511065,1.67
1764746335.517053,1.42
1764746335.523409,1.54
1764746335.52976,1.44
1764746335.535867,1.06
1764746335.54217,1.17
1764746335.548376,1.19
1764746335.5546198,1.24
1764746335.560904,1.3
1764746335.567265,1.07
1764746335.573483,1.22
1764746335.579734,1.31
1764746335.585941,1.12
1764746335.59216,1.22
1764746335.598486,1.22
1764746335.60466,1.29
1764746335.6110568,1.36
1764746335.617155,1.32
1764746335.623339,1.96
1764746335.630105,2.64
1764746335.635941,2.74
1764746335.642185,2.53
1764746335.648407,1.22
1764746335.654593,0.73
1764746335.6611,1.25
1764746335.667061,1.15
1764746335.67335,1.21
1764746335.6795468,1.2
1764746335.68583,1.02
1764746335.692102,1.17
1764746335.6983948,1.3
1764746335.7047,1.26
1764746335.710947,1.3
1764746335.7170591,1.22
1764746335.723378,1.35
1764746335.729748,1.24
1764746335.736099,1.22
1764746335.7422562,1.49
1764746335.748487,1.24
1764746335.754647,1.19
1764746335.761004,1.45
1764746335.76717,1.31
1764746335.7734668,1.41
1764746335.779666,1.47
1764746335.785857,1.31
1764746335.792203,1.45
1764746335.7985,1.41
1764746335.804749,1.41
1764746335.810878,1.62
1764746335.817062,1.45
1764746335.823332,1.37
1764746335.8298602,1.41
1764746335.8359208,1.4
1764746335.842287,1.45
1764746335.8485298,1.26
1764746335.854576,1.3
1764746335.86096,1.6
1764746335.867082,1.38
1764746335.87336,1.3
1764746335.879618,1.46
1764746335.885806,1.41
1764746335.8920908,1.45
1764746335.898276,1.39
1764746335.904497,1.46
1764746335.911594,1.51
1764746335.916969,1.4
1764746335.923257,1.52
1764746335.929593,1.41
1764746335.9358149,1.43
1764746335.942105,1.61
1764746335.9481962,1.53
1764746335.954407,1.44
1764746335.961012,1.6
1764746335.96703,1.54
1764746335.973236,1.54
1764746335.979431,1.6
1764746335.985773,1.48
1764746335.9920928,1.63
1764746335.9982238,1.55
1764746336.00453,1.5
1764746336.011132,1.76
1764746336.017015,1.65
1764746336.023223,1.75
1764746336.02959,1.81
1764746336.03585,1.7
1764746336.042092,1.82
1764746336.048286,1.86
1764746336.054604,1.94
1764746336.06101,2.03
1764746336.067233,1.8
1764746336.073418,1.83
1764746336.0797188,1.74
1764746336.085797,1.66
1764746336.092387,1.78
1764746336.0982678,1.68
1764746336.104644,1.62
1764746336.11111,1.7
1764746336.1170702,1.5
1764746336.12353,1.71
1764746336.1295412,1.63
1764746336.135811,1.56
1764746336.142098,1.75
1764746336.148326,1.48
1764746336.1545851,1.47
1764746336.160876,1.73
1764746336.16725,1.86
1764746336.173336,2.44
1764746336.179539,3.02
1764746336.185777,3.14
1764746336.192085,3.01
1764746336.198268,1.61
1764746336.204659,0.98
1764746336.210919,1.63
1764746336.216992,1.62
1764746336.2233238,1.59
1764746336.229609,1.59
1764746336.2357938,1.49
1764746336.24195,1.72
1764746336.248287,1.62
1764746336.254655,1.52
1764746336.2607691,1.73
1764746336.2670898,1.6
1764746336.273333,1.76
1764746336.27959,1.75
1764746336.285918,1.62
1764746336.291989,1.82
1764746336.298202,1.75
1764746336.304457,1.82
1764746336.3109188,1.89
1764746336.321312,1.66
1764746336.339995,1.96
1764746336.352532,2.02
1764746336.355862,1.86
1764746336.3570602,2.05
1764746336.3666828,1.91
1764746336.372511,1.92
1764746336.3728662,2.14
1764746336.372958,1.96
1764746336.3742652,1.98
1764746336.379342,1.99
1764746336.3864262,1.96
1764746336.396605,2.08
1764746336.398502,1.87
1764746336.404373,1.91
1764746336.4108748,2.03
1764746336.4169788,1.82
1764746336.423262,1.97
1764746336.429445,1.96
1764746336.436428,1.79
1764746336.44288,1.99
1764746336.4481869,1.87
1764746336.454432,1.9
1764746336.4615302,2.05
1764746336.466988,1.85
1764746336.4732318,1.96
1764746336.480356,1.99
1764746336.485687,1.9
1764746336.492167,2.12
1764746336.4984288,2.03
1764746336.504408,1.97
1764746336.510881,2.05
1764746336.517055,1.96
1764746336.523165,2.17
1764746336.529474,2.1
1764746336.535666,1.94
1764746336.542041,2.09
1764746336.548147,1.99
1764746336.554526,2.1
1764746336.5606568,2.15
1764746336.566981,1.88
1764746336.573091,2.13
1764746336.5794492,2.21
1764746336.585608,2.04
1764746336.592016,2.11
1764746336.598184,2.16
1764746336.604405,2.29
1764746336.610843,2.34
1764746336.617006,2.08
1764746336.6231182,2.16
1764746336.629464,2.19
1764746336.635624,1.86
1764746336.641986,1.93
1764746336.648135,1.87
1764746336.654354,1.77
1764746336.660649,1.85
1764746336.666937,1.77
1764746336.673072,1.84
1764746336.6795032,1.82
1764746336.68567,1.71
1764746336.6921542,1.88
1764746336.6981142,1.76
1764746336.704621,1.72
1764746336.710876,1.84
1764746336.716942,1.83
1764746336.723207,2.28
1764746336.729739,3.03
1764746336.7357938,3.16
1764746336.742422,3.15
1764746336.748163,2.2
1764746336.754431,1.03
1764746336.760801,1.52
1764746336.766953,1.89
1764746336.773221,1.76
1764746336.779489,1.56
1764746336.785613,1.59
1764746336.79218,1.77
1764746336.798107,1.55
1764746336.804536,1.61
1764746336.811095,1.79
1764746336.8169432,1.62
1764746336.823204,1.6
1764746336.8294668,1.73
1764746336.835723,1.66
1764746336.841932,1.68
1764746336.848139,1.63
1764746336.85442,1.65
1764746336.860648,1.71
1764746336.8670678,1.53
1764746336.873193,1.62
1764746336.8796868,1.68
1764746336.8857212,1.53
1764746336.8918002,1.65
1764746336.898138,1.6
1764746336.904453,1.67
1764746336.910861,1.74
1764746336.917013,1.54
1764746336.923275,1.57
1764746336.929575,1.64
1764746336.9356532,1.46
1764746336.942005,1.55
1764746336.9480891,1.45
1764746336.954298,1.43
1764746336.960628,1.45
1764746336.967008,1.29
1764746336.973175,1.39
1764746336.979458,1.31
1764746336.985788,1.28
1764746336.992146,1.47
1764746336.998096,1.29
1764746337.00439,1.24
1764746337.011168,1.37
1764746337.016872,1.23
1764746337.0231192,1.33
1764746337.029343,1.3
1764746337.035572,1.21
1764746337.042113,1.37
1764746337.0481348,1.26
1764746337.054456,1.22
1764746337.060947,1.32
1764746337.066769,1.2
1764746337.072986,1.28
1764746337.0796,1.26
1764746337.0855548,1.18
1764746337.091833,1.28
1764746337.098122,1.15
1764746337.104452,1.19
1764746337.111111,1.34
1764746337.116843,1.18
1764746337.1230772,1.24
1764746337.129417,1.27
1764746337.135511,1.26
1764746337.142283,1.41
1764746337.1482172,1.33
1764746337.154308,1.4
1764746337.161726,1.54
1764746337.166889,1.47
1764746337.1731148,1.5
1764746337.179395,1.48
1764746337.1855,1.31
1764746337.191749,1.32
1764746337.1982532,1.19
1764746337.204412,1.16
1764746337.210748,1.22
1764746337.21678,1.14
1764746337.223113,1.24
1764746337.2294211,1.2
1764746337.235494,1.06
1764746337.242154,1.25
1764746337.248087,1.22
1764746337.254356,1.19
1764746337.260545,1.2
1764746337.266779,1.1
1764746337.272964,1.35
1764746337.279222,1.67
1764746337.285457,2.33
1764746337.291668,2.94
1764746337.297944,2.58
1764746337.304222,1.4
1764746337.31075,0.77
1764746337.316856,0.97
1764746337.323072,1.29
1764746337.3293,1.2
1764746337.3355389,1.05
1764746337.3417149,1.2
1764746337.347962,1.18
1764746337.354305,1.18
1764746337.36065,1.25
1764746337.366755,1.12
1764746337.372999,1.25
1764746337.379402,1.27
1764746337.3854778,1.18
1764746337.391813,1.32
1764746337.397892,1.26
1764746337.404316,1.29
1764746337.410946,1.41
1764746337.416766,1.27
1764746337.423054,1.36
1764746337.429333,1.41
1764746337.43558,1.34
1764746337.4418209,1.48
1764746337.447973,1.42
1764746337.454349,1.43
1764746337.460562,1.56
1764746337.46687,1.45
1764746337.472972,1.53
1764746337.47924,1.54
1764746337.485441,1.45
1764746337.4917078,1.58
1764746337.498107,1.43
1764746337.5041778,1.44
1764746337.510436,1.57
1764746337.516756,1.47
1764746337.522957,1.59
1764746337.529239,1.55
1764746337.535425,1.4
1764746337.541697,1.6
1764746337.5479722,1.52
1764746337.5542452,1.53
1764746337.560564,1.55
1764746337.566607,1.42
1764746337.57284,1.6
1764746337.579108,1.59
1764746337.585427,1.47
1764746337.5917408,1.59
1764746337.597891,1.5
1764746337.604084,1.48
1764746337.610501,1.6
1764746337.6165829,1.44
1764746337.622846,1.47
1764746337.629123,1.52
1764746337.635487,1.52
1764746337.64182,1.65
1764746337.647922,1.46
1764746337.654187,1.47
1764746337.660404,1.64
1764746337.666638,1.44
1764746337.672854,1.58
1764746337.679135,1.69
1764746337.685314,1.58
1764746337.691736,1.67
1764746337.697851,1.65
1764746337.7041512,1.87
1764746337.710711,2.01
1764746337.7166789,1.72
1764746337.722909,1.81
1764746337.729129,1.86
1764746337.735392,1.58
1764746337.7416131,1.61
1764746337.747872,1.55
1764746337.754128,1.52
1764746337.760381,1.57
1764746337.766536,1.45
1764746337.772911,1.62
1764746337.779134,1.58
1764746337.785498,1.42
1764746337.791644,1.57
1764746337.797919,1.5
1764746337.804114,1.45
1764746337.810424,1.57
1764746337.816566,1.51
1764746337.822815,1.74
1764746337.8290932,2.23
1764746337.8353589,2.88
1764746337.84166,3.08
1764746337.847806,2.29
1764746337.8540668,1.22
1764746337.860363,1.16
1764746337.866709,1.55
1764746337.873127,1.62
1764746337.879167,1.47
1764746337.885424,1.42
1764746337.891786,1.54
1764746337.897813,1.45
1764746337.904139,1.52
1764746337.91046,1.6
1764746337.916553,1.44
1764746337.92285,1.55
1764746337.9291189,1.61
1764746337.935364,1.55
1764746337.941602,1.7
1764746337.9478872,1.56
1764746337.954066,1.61
1764746337.9603388,1.75
1764746337.966544,1.57
1764746337.972799,1.66
1764746337.9790862,1.64
1764746337.99996,1.58
1764746338.029618,1.75
1764746338.031502,1.62
1764746338.044232,1.6
1764746338.0445,1.82
1764746338.0447931,1.7
1764746338.044943,1.72
1764746338.0450208,1.68
1764746338.045113,1.57
1764746338.045299,1.73
1764746338.070525,1.61
1764746338.0741582,1.6
1764746338.074709,1.67
1764746338.075253,1.52
1764746338.075597,1.65
1764746338.0791008,1.55
1764746338.085427,1.46
1764746338.098058,1.66
1764746338.1004438,1.53
1764746338.104077,1.57
1764746338.111221,1.72
1764746338.116829,1.54
1764746338.122847,1.61
1764746338.129298,1.56
1764746338.1376152,1.52
1764746338.142682,1.6
1764746338.147995,1.38
1764746338.154405,1.47
1764746338.1604228,1.74
1764746338.166716,1.36
1764746338.1728928,1.49
1764746338.17918,1.72
1764746338.185929,1.55
1764746338.191524,1.54
1764746338.197771,1.41
1764746338.204098,1.58
1764746338.210392,1.64
1764746338.2165608,1.47
1764746338.222816,1.71
1764746338.229002,1.6
1764746338.235272,1.5
1764746338.241484,1.78
1764746338.247824,1.68
1764746338.2539709,1.65
1764746338.2603688,1.72
1764746338.2665222,1.5
1764746338.272726,1.74
1764746338.2790148,1.54
1764746338.28525,1.3
1764746338.2915268,1.52
1764746338.297761,1.33
1764746338.303969,1.35
1764746338.310386,1.41
1764746338.316594,1.26
1764746338.322822,1.5
1764746338.328995,1.51
1764746338.335296,1.33
1764746338.341658,1.44
1764746338.347761,1.27
1764746338.354076,1.53
1764746338.3603442,1.7
1764746338.366536,1.82
1764746338.372715,2.81
1764746338.37895,3.12
1764746338.385322,2.69
1764746338.39149,1.66
1764746338.397686,0.76
1764746338.4040089,1.18
1764746338.41018,1.53
1764746338.416384,1.26
1764746338.42282,1.4
1764746338.428929,1.54
1764746338.435342,1.58
1764746338.441524,1.71
1764746338.447721,1.47
1764746338.453948,1.54
1764746338.4602711,1.63
1764746338.466635,1.33
1764746338.4729118,1.59
1764746338.479054,1.69
1764746338.48534,1.52
1764746338.49152,1.6
1764746338.4977229,1.58
1764746338.504038,1.82
1764746338.510187,1.86
1764746338.516476,1.62
1764746338.522641,1.73
1764746338.528887,1.8
1764746338.5352042,1.8
1764746338.541539,1.81
1764746338.5477078,1.65
1764746338.553952,1.8
1764746338.5601778,1.86
1764746338.566428,1.62
1764746338.572792,1.69
1764746338.5788531,1.66
1764746338.5853078,1.61
1764746338.591874,1.69
1764746338.597715,1.52
1764746338.604053,1.66
1764746338.610271,1.7
1764746338.6165838,1.52
1764746338.622719,1.58
1764746338.628939,1.57
1764746338.635178,1.59
1764746338.6415548,1.63
1764746338.647775,1.52
1764746338.654005,1.55
1764746338.6602082,1.68
1764746338.666376,1.54
1764746338.672665,1.62
1764746338.678911,1.62
1764746338.685175,1.54
1764746338.6920938,1.61
1764746338.697668,1.5
1764746338.703912,1.61
1764746338.71018,1.64
1764746338.7164469,1.48
1764746338.722763,1.59
1764746338.729484,1.52
1764746338.735369,1.52
1764746338.7414231,1.64
1764746338.747693,1.49
1764746338.754006,1.63
1764746338.760297,1.76
1764746338.7663949,1.54
1764746338.772681,1.62
1764746338.7788842,1.69
1764746338.785204,1.71
1764746338.791698,1.72
1764746338.797648,1.6
1764746338.803842,1.64
1764746338.810415,1.67
1764746338.8164392,1.32
1764746338.822783,1.35
1764746338.828949,1.37
1764746338.835228,1.23
1764746338.8427038,1.26
1764746338.847699,1.14
1764746338.853944,1.39
1764746338.86025,1.45
1764746338.86647,1.2
1764746338.872702,1.25
1764746338.878922,1.33
1764746338.885258,1.37
1764746338.891484,1.33
1764746338.897835,1.26
1764746338.903955,1.5
1764746338.910201,2.14
1764746338.916457,2.66
1764746338.922693,2.83
1764746338.929291,2.12
1764746338.935211,0.81
1764746338.94141,0.96
1764746338.947655,1.37
1764746338.954316,1.34
1764746338.960087,1.34
1764746338.9664152,1.27
1764746338.972766,1.39
1764746338.978904,1.32
1764746338.985158,1.29
1764746338.991349,1.47
1764746338.997611,1.29
1764746339.003882,1.29
1764746339.010068,1.41
1764746339.0162828,1.34
1764746339.023217,1.51
1764746339.028998,1.48
1764746339.035079,1.37
1764746339.041539,1.57
1764746339.047564,1.53
1764746339.053838,1.56
1764746339.060256,1.63
1764746339.066667,1.55
1764746339.0728042,1.74
1764746339.078951,1.62
1764746339.085249,1.57
1764746339.091763,1.82
1764746339.097616,1.66
1764746339.103887,1.66
1764746339.110183,1.74
1764746339.116392,1.64
1764746339.123329,1.74
1764746339.128874,1.67
1764746339.135464,1.6
1764746339.141634,1.79
1764746339.147582,1.64
1764746339.153892,1.7
1764746339.160254,1.81
1764746339.166373,1.6
1764746339.172621,1.74
1764746339.178764,1.69
1764746339.185118,1.54
1764746339.1924238,1.85
1764746339.197574,1.71
1764746339.203768,1.71
1764746339.21008,1.8
1764746339.2162628,1.63
1764746339.222649,1.83
1764746339.228887,1.81
1764746339.235067,1.68
1764746339.241966,1.9
1764746339.247479,1.76
1764746339.253817,1.74
1764746339.260064,1.9
1764746339.266293,1.73
1764746339.272498,1.83
1764746339.278768,1.77
1764746339.285015,1.69
1764746339.291857,1.88
1764746339.297503,1.81
1764746339.303869,1.91
1764746339.310167,1.98
1764746339.316233,1.72
1764746339.3229198,1.99
1764746339.328769,2.17
1764746339.335082,1.99
1764746339.341357,1.99
1764746339.347588,2.0
1764746339.3538072,2.01
1764746339.360118,1.83
1764746339.366337,1.61
1764746339.372927,1.74
1764746339.3788311,1.73
1764746339.385068,1.62
1764746339.391446,1.78
1764746339.3975658,1.65
1764746339.403882,1.64
1764746339.410136,1.71
1764746339.416302,1.52
1764746339.42286,1.69
1764746339.42873,1.61
1764746339.435033,1.52
1764746339.441906,1.81
1764746339.447428,2.11
1764746339.453795,2.9
1764746339.4599838,3.16
1764746339.466273,3.09
1764746339.4727411,2.09
1764746339.478847,1.02
1764746339.511465,1.3
1764746339.511613,1.81
1764746339.511746,1.56
1764746339.511869,1.55
1764746339.5121012,1.65
1764746339.516742,1.51
1764746339.563696,1.6
1764746339.563999,1.57
1764746339.5642629,1.47
1764746339.564529,1.63
1764746339.564794,1.55
1764746339.565037,1.63
1764746339.565281,1.72
1764746339.629392,1.52
1764746339.629743,1.65
1764746339.630008,1.7
1764746339.630253,1.63
1764746339.6304991,1.77
1764746339.630752,1.63
1764746339.6310232,1.67
1764746339.631277,1.79
1764746339.631526,1.66
1764746339.631784,1.78
1764746339.6320572,1.78
1764746339.637627,1.69
1764746339.641501,1.78
1764746339.647813,1.64
1764746339.653877,1.67
1764746339.660073,1.83
1764746339.6664069,1.72
1764746339.67267,1.74
1764746339.679085,1.7
1764746339.68496,1.65
1764746339.691343,1.83
1764746339.697477,1.68
1764746339.703755,1.71
1764746339.7101362,1.79
1764746339.716521,1.64
1764746339.7226508,1.74
1764746339.728815,1.7
1764746339.735012,1.68
1764746339.741418,1.79
1764746339.747461,1.65
1764746339.7537751,1.69
1764746339.760018,1.78
1764746339.766302,1.62
1764746339.772821,1.73
1764746339.778805,1.7
1764746339.785017,1.61
1764746339.791294,1.75
1764746339.797455,1.63
1764746339.803713,1.63
1764746339.8100522,1.7
1764746339.8162172,1.55
1764746339.822491,1.71
1764746339.828725,1.64
1764746339.834937,1.59
1764746339.841741,1.79
1764746339.847429,1.7
1764746339.853717,1.74
1764746339.86003,1.83
1764746339.866247,1.8
1764746339.872523,1.96
1764746339.878742,1.82
1764746339.884932,1.73
1764746339.891555,1.89
1764746339.897446,1.61
1764746339.9037209,1.56
1764746339.909924,1.66
1764746339.916311,1.49
1764746339.922576,1.55
1764746339.928694,1.52
1764746339.934937,1.49
1764746339.9416928,1.7
1764746339.9475431,1.53
1764746339.953641,1.54
1764746339.9598908,1.62
1764746339.966222,1.49
1764746339.972501,1.6
1764746339.978807,1.56
1764746339.984886,1.65
1764746339.991298,2.33
1764746339.997391,2.98
1764746340.003646,3.12
1764746340.0099788,2.66
1764746340.01617,1.3
1764746340.0227358,1.12
1764746340.02862,1.45
1764746340.034925,1.47
1764746340.041215,1.58
1764746340.047315,1.41
1764746340.0536902,1.51
1764746340.0598469,1.62
1764746340.066151,1.41
1764746340.072465,1.61
1764746340.078648,1.56
1764746340.0848498,1.5
1764746340.09109,1.64
1764746340.0973032,1.5
1764746340.103716,1.64
1764746340.1099038,1.77
1764746340.116129,1.56
1764746340.122408,1.69
1764746340.128583,1.69
1764746340.1348102,1.63
1764746340.141341,1.74
1764746340.147393,1.62
1764746340.153667,1.74
1764746340.15997,1.82
1764746340.166034,1.64
1764746340.1726131,1.76
1764746340.178577,1.71
1764746340.1849668,1.68
1764746340.191241,1.85
1764746340.197353,1.69
1764746340.203645,1.77
1764746340.209847,1.84
1764746340.216074,1.66
1764746340.222474,1.77
1764746340.2287612,1.74
1764746340.23476,1.69
1764746340.2413042,1.84
1764746340.247304,1.68
1764746340.2536058,1.73
1764746340.259799,1.86
1764746340.266078,1.67
1764746340.272366,1.74
1764746340.278563,1.72
1764746340.2848902,1.66
1764746340.291106,1.8
1764746340.297514,1.65
1764746340.303634,1.69
1764746340.309998,1.76
1764746340.3160908,1.64
1764746340.322338,1.74
1764746340.328676,1.66
1764746340.33484,1.62
1764746340.341116,1.82
1764746340.347334,1.68
1764746340.353712,1.71
1764746340.3600042,1.71
1764746340.3660622,1.63
1764746340.372447,1.82
1764746340.378659,1.75
1764746340.384989,1.69
1764746340.391386,1.91
1764746340.397405,1.74
1764746340.403645,1.82
1764746340.40989,2.06
1764746340.416055,1.86
1764746340.4224372,1.93
1764746340.42875,1.94
1764746340.434937,1.8
1764746340.441387,1.7
1764746340.447368,1.52
1764746340.453596,1.61
1764746340.4598489,1.64
1764746340.4660668,1.38
1764746340.472457,1.57
1764746340.478745,1.51
1764746340.484937,1.59
1764746340.4913568,2.05
1764746340.4973829,1.77
1764746340.503566,1.71
1764746340.5098188,1.89
1764746340.51607,1.71
1764746340.5224168,1.94
1764746340.5285518,2.09
1764746340.534911,2.63
1764746340.541086,3.16
1764746340.5473962,3.13
1764746340.5535748,2.55
1764746340.559979,1.31
1764746340.566035,1.2
1764746340.57232,1.9
1764746340.578449,1.71
1764746340.584793,1.45
1764746340.591258,1.76
1764746340.597238,1.64
1764746340.603603,1.64
1764746340.609782,1.67
1764746340.6159732,1.61
1764746340.622424,1.83
1764746340.628809,1.84
1764746340.6348548,1.79
1764746340.6413078,1.92
1764746340.647338,1.84
1764746340.653553,2.01
1764746340.659787,2.07
1764746340.666014,1.98
1764746340.6723242,2.1
1764746340.678601,1.97
1764746340.684823,1.99
1764746340.691012,2.16
1764746340.697425,1.95
1764746340.703622,2.05
1764746340.709721,2.12
1764746340.716007,1.96
1764746340.7234051,2.11
1764746340.728736,2.07
1764746340.734804,2.01
1764746340.7411,2.05
1764746340.747192,2.03
1764746340.753492,2.03
1764746340.7597802,1.91
1764746340.765916,1.81
1764746340.772371,2.02
1764746340.778489,1.78
1764746340.784642,1.65
1764746340.791122,1.82
1764746340.797343,1.69
1764746340.803458,1.78
1764746340.809679,1.75
1764746340.815944,1.53
1764746340.822262,1.78
1764746340.828497,1.76
1764746340.8347158,1.68
1764746340.841025,1.81
1764746340.847256,1.65
1764746340.853512,1.66
1764746340.859808,1.68
1764746340.865945,1.52
1764746340.872702,1.62
1764746340.878498,1.52
1764746340.884772,1.37
1764746340.891047,1.57
1764746340.897181,1.45
1764746340.903479,1.48
1764746340.90974,1.41
1764746340.9158652,1.33
1764746340.92231,1.7
1764746340.928457,1.64
1764746340.934727,1.5
1764746340.941047,1.62
1764746340.947231,1.65
1764746340.953524,1.75
1764746340.95968,1.66
1764746340.9659011,1.5
1764746340.973012,1.59
1764746340.978553,1.39
1764746340.984722,1.26
1764746340.9913049,1.35
1764746340.997254,1.14
1764746341.003571,1.2
1764746341.009839,1.24
1764746341.016015,1.09
1764746341.022418,1.29
1764746341.0286531,1.18
1764746341.034857,1.13
1764746341.042445,1.27
1764746341.095315,1.11
1764746341.099311,1.29
1764746341.099675,1.33
1764746341.099922,1.33
1764746341.1001642,2.21
1764746341.100392,2.83
1764746341.100631,2.8
1764746341.1008608,2.24
1764746341.1010802,0.83
1764746341.1238022,0.92
1764746341.124094,1.52
1764746341.124332,1.22
1764746341.124584,1.3
1764746341.130235,1.17
1764746341.134688,1.12
1764746341.144906,1.46
1764746341.147194,1.28
1764746341.153478,1.28
1764746341.159947,1.29
1764746341.165958,1.16
1764746341.172244,1.39
1764746341.178426,1.31
1764746341.1846778,1.27
1764746341.190965,1.44
1764746341.197377,1.22
1764746341.203444,1.46
1764746341.209843,1.48
1764746341.215903,1.29
1764746341.2222452,1.5
1764746341.2284842,1.4
1764746341.2347689,1.43
1764746341.2409742,1.6
1764746341.2472792,1.38
1764746341.2536068,1.6
1764746341.259819,1.62
1764746341.266334,1.37
1764746341.272675,1.73
1764746341.2784262,1.63
1764746341.284653,1.42
1764746341.290925,1.68
1764746341.297215,1.61
1764746341.3034198,1.71
1764746341.309662,1.64
1764746341.316152,1.37
1764746341.3221812,1.66
1764746341.3284,1.57
1764746341.334742,1.49
1764746341.341026,1.69
1764746341.347164,1.43
1764746341.353474,1.62
1764746341.359755,1.78
1764746341.3658729,1.51
1764746341.3724248,1.72
1764746341.3785028,1.6
1764746341.38456,1.54
1764746341.390912,1.68
1764746341.397066,1.52
1764746341.403334,1.63
1764746341.4095528,1.66
1764746341.415952,1.51
1764746341.422267,1.72
1764746341.4283469,1.55
1764746341.434734,1.43
1764746341.441066,1.7
1764746341.447327,1.58
1764746341.453419,1.67
1764746341.459575,1.7
1764746341.465906,1.62
1764746341.472281,1.79
1764746341.478484,1.66
1764746341.484662,1.59
1764746341.4908931,1.85
1764746341.497076,1.76
1764746341.50333,1.77
1764746341.509562,1.73
1764746341.515884,1.41
1764746341.522452,1.37
1764746341.5283358,1.25
1764746341.534604,1.29
1764746341.540998,1.48
1764746341.547127,1.14
1764746341.553342,1.19
1764746341.559516,1.31
1764746341.565849,1.14
1764746341.572435,1.24
1764746341.578431,1.1
1764746341.584587,1.08
1764746341.5908391,1.3
1764746341.597002,1.0
1764746341.60329,1.19
1764746341.609576,1.96
1764746341.615903,2.57
1764746341.622085,2.77
1764746341.628306,2.03
1764746341.634609,0.72
1764746341.6413069,0.66
1764746341.647085,1.12
1764746341.6532989,1.14
1764746341.6594932,0.92
1764746341.665868,0.74
1764746341.6721458,1.18
1764746341.678252,1.09
1764746341.6845472,0.82
1764746341.6911108,0.91
1764746341.6969972,1.0
1764746341.703256,1.02
1764746341.70948,1.03
1764746341.71579,0.89
1764746341.722177,1.09
1764746341.728214,1.05
1764746341.734581,0.92
1764746341.740757,1.08
1764746341.7470589,1.03
1764746341.753333,1.05
1764746341.759542,1.02
1764746341.765764,1.03
1764746341.772185,1.23
1764746341.778441,1.08
1764746341.784535,0.95
1764746341.791185,1.18
1764746341.797108,1.03
1764746341.803369,1.02
1764746341.809626,1.06
1764746341.8157818,1.03
1764746341.822088,1.02
1764746341.828266,0.8
1764746341.834552,0.88
1764746341.841871,1.08
1764746341.847169,0.81
1764746341.8533928,0.87
1764746341.859555,0.89
1764746341.865878,0.73
1764746341.872112,0.87
1764746341.878182,0.87
1764746341.8845272,0.86
1764746341.89073,1.02
1764746341.897003,0.86
1764746341.9032588,0.92
1764746341.90948,1.05
1764746341.915733,0.89
1764746341.922006,0.99
1764746341.9282691,0.96
1764746341.934536,1.01
1764746341.940778,1.12
1764746341.946944,0.93
1764746341.953197,1.02
1764746341.959501,1.1
1764746341.965748,0.93
1764746341.9720042,1.03
1764746341.978178,1.11
1764746341.984501,1.06
1764746341.990751,1.17
1764746341.9969249,1.04
1764746342.003233,1.17
1764746342.009452,1.45
1764746342.01574,1.31
1764746342.02206,1.38
1764746342.028223,1.44
1764746342.0344572,1.49
1764746342.040767,1.61
1764746342.04698,1.49
1764746342.053288,1.46
1764746342.059413,1.23
1764746342.0657458,1.04
1764746342.07202,1.33
1764746342.078131,1.15
1764746342.084418,1.0
1764746342.090723,1.25
1764746342.0969331,1.05
1764746342.103166,1.21
1764746342.109386,1.27
1764746342.1157298,1.08
1764746342.122106,1.19
1764746342.128165,1.09
1764746342.134448,1.17
1764746342.140749,1.37
1764746342.1468632,1.39
1764746342.153195,2.24
1764746342.15949,2.99
1764746342.16571,2.58
1764746342.171958,1.73
1764746342.178147,0.74
1764746342.184449,0.91
1764746342.19068,1.31
1764746342.196927,1.09
1764746342.203164,1.28
1764746342.209387,1.34
1764746342.2156422,1.11
1764746342.2221692,1.34
1764746342.228111,1.31
1764746342.2345831,1.3
1764746342.240711,1.48
1764746342.246908,1.23
1764746342.253221,1.37
1764746342.259391,1.5
1764746342.2656388,1.3
1764746342.271935,1.51
1764746342.278282,1.42
1764746342.2844758,1.39
1764746342.290669,1.55
1764746342.296918,1.41
1764746342.3032289,1.55
1764746342.309419,1.68
1764746342.315642,1.6
1764746342.321959,1.77
1764746342.328114,1.67
1764746342.334391,1.61
1764746342.340659,1.74
1764746342.346882,1.61
1764746342.3531678,1.72
1764746342.359356,1.8
1764746342.3657,1.63
1764746342.372206,1.69
1764746342.378185,1.64
1764746342.384371,1.73
1764746342.3905358,1.9
1764746342.396855,1.7
1764746342.403214,1.81
1764746342.4093409,1.81
1764746342.4156811,1.65
1764746342.4219189,1.95
1764746342.42811,1.92
1764746342.434377,1.8
1764746342.440835,1.92
1764746342.44687,1.79
1764746342.453147,1.96
1764746342.459285,1.97
1764746342.465632,1.8
1764746342.4720042,2.01
1764746342.478153,1.94
1764746342.484408,1.92
1764746342.490606,2.15
1764746342.4969192,1.96
1764746342.503126,1.96
1764746342.5095968,2.0
1764746342.515615,1.89
1764746342.521943,2.14
1764746342.5280929,2.1
1764746342.534344,2.04
