timestamp,ecg_value
1762880029.1845582,1.54
1762880029.1905768,1.52
1762880029.196723,1.5
1762880029.203444,1.47
1762880029.2092009,1.45
1762880029.2154171,1.45
1762880029.221678,1.47
1762880029.2278552,1.51
1762880029.2344372,1.55
1762880029.2404659,1.58
1762880029.2467809,1.59
1762880029.252897,1.59
1762880029.259085,1.57
1762880029.2654169,1.55
1762880029.271626,1.53
1762880029.2778728,1.53
1762880029.284024,1.56
1762880029.2904232,1.53
1762880029.296782,1.42
1762880029.3029509,1.58
1762880029.309123,1.54
1762880029.315419,1.44
1762880029.3216178,1.52
1762880029.3278122,1.48
1762880029.334104,1.51
1762880029.3403351,1.58
1762880029.34658,1.48
1762880029.3528562,1.43
1762880029.3602371,1.44
1762880029.3653939,1.42
1762880029.3715599,1.47
1762880029.3779058,1.52
1762880029.3841238,1.5
1762880029.390362,1.49
1762880029.396735,1.44
1762880029.402881,1.48
1762880029.409472,1.58
1762880029.415304,1.67
1762880029.421599,1.55
1762880029.427876,1.52
1762880029.4340858,1.71
1762880029.440313,1.72
1762880029.4465358,1.64
1762880029.4528818,1.62
1762880029.459649,1.6
1762880029.465295,1.58
1762880029.471575,1.67
1762880029.478024,1.61
1762880029.484208,1.37
1762880029.490338,1.46
1762880029.4965692,1.28
1762880029.502792,1.27
1762880029.509828,1.38
1762880029.5153348,1.39
1762880029.5215669,1.32
1762880029.527903,1.38
1762880029.534122,1.51
1762880029.5403662,1.48
1762880029.546602,1.41
1762880029.552789,1.43
1762880029.5590641,1.46
1762880029.565378,1.45
1762880029.571805,1.51
1762880029.577749,1.55
1762880029.5840662,1.5
1762880029.590267,1.46
1762880029.59661,1.6
1762880029.6027899,2.05
1762880029.609129,2.78
1762880029.615227,3.17
1762880029.6216152,3.17
1762880029.6278698,3.17
1762880029.6340108,2.12
1762880029.640446,0.65
1762880029.646701,1.28
1762880029.652935,1.82
1762880029.659539,1.44
1762880029.665281,1.19
1762880029.6716008,1.44
1762880029.6778371,1.52
1762880029.684042,1.47
1762880029.69051,1.46
1762880029.696676,1.44
1762880029.702768,1.46
1762880029.7091289,1.47
1762880029.715269,1.47
1762880029.721546,1.45
1762880029.727796,1.43
1762880029.73404,1.53
1762880029.740335,1.52
1762880029.7467039,1.46
1762880029.752733,1.48
1762880029.759029,1.54
1762880029.765492,1.53
1762880029.771598,1.57
1762880029.7778409,1.62
1762880029.7840462,1.63
1762880029.790325,1.65
1762880029.796582,1.59
1762880029.80283,1.68
1762880029.812869,1.74
1762880029.825088,1.7
1762880029.8261602,1.77
1762880029.827981,1.82
1762880029.872549,1.79
1762880029.877604,1.76
1762880029.880585,1.8
1762880029.880708,2.01
1762880029.880805,2.11
1762880029.880898,2.28
1762880029.880996,1.94
1762880029.881097,1.64
1762880029.883971,1.65
1762880029.8916202,1.65
1762880029.89653,1.62
1762880029.9029682,1.58
1762880029.909162,1.45
1762880029.915238,1.46
1762880029.921416,1.44
1762880029.9276822,1.43
1762880029.933955,1.5
1762880029.940216,1.46
1762880029.946465,1.4
1762880029.952734,1.65
1762880029.959102,1.39
1762880029.9653828,1.25
1762880029.971413,1.4
1762880029.9779258,1.42
1762880029.984114,1.35
1762880029.9901388,1.41
1762880029.9964108,1.43
1762880030.002719,1.45
1762880030.009077,1.41
1762880030.0152209,1.42
1762880030.021471,1.46
1762880030.0278232,1.41
1762880030.0338922,1.54
1762880030.0402172,1.54
1762880030.046367,1.46
1762880030.0527701,1.57
1762880030.058971,1.5
1762880030.065252,1.41
1762880030.0714061,1.51
1762880030.077678,1.49
1762880030.0839071,1.48
1762880030.090168,1.56
1762880030.096404,1.54
1762880030.102703,1.51
1762880030.109021,1.47
1762880030.115236,1.53
1762880030.121469,1.61
1762880030.1276789,1.46
1762880030.1339169,1.5
1762880030.140171,1.53
1762880030.1464279,1.46
1762880030.15266,1.5
1762880030.158933,1.5
1762880030.165152,1.46
1762880030.1713762,1.53
1762880030.17769,1.51
1762880030.183873,1.54
1762880030.190185,1.54
1762880030.196395,1.59
1762880030.202671,1.66
1762880030.208995,1.6
1762880030.21518,1.61
1762880030.221407,1.73
1762880030.227644,1.76
1762880030.233872,1.71
1762880030.240167,1.64
1762880030.246451,1.64
1762880030.252689,1.6
1762880030.258959,1.43
1762880030.265204,1.4
1762880030.27137,1.56
1762880030.2777238,1.51
1762880030.283893,1.44
1762880030.290205,1.5
1762880030.296387,1.51
1762880030.302675,1.5
1762880030.308961,1.48
1762880030.3151329,1.52
1762880030.3214972,1.52
1762880030.327859,1.49
1762880030.333973,1.49
1762880030.3401291,1.5
1762880030.346389,1.52
1762880030.352757,1.51
1762880030.359026,1.51
1762880030.365359,1.57
1762880030.371396,1.6
1762880030.3776891,1.64
1762880030.3838542,1.84
1762880030.390194,2.44
1762880030.39645,3.16
1762880030.4026082,3.17
1762880030.408919,3.17
1762880030.415308,2.98
1762880030.421396,1.11
1762880030.427634,0.96
1762880030.433881,1.81
1762880030.4401422,1.74
1762880030.4463449,1.35
1762880030.4526238,1.46
1762880030.45923,1.58
1762880030.4651148,1.5
1762880030.471476,1.48
1762880030.4776478,1.47
1762880030.483951,1.48
1762880030.49014,1.49
1762880030.496397,1.52
1762880030.502603,1.56
1762880030.5089128,1.51
1762880030.515093,1.54
1762880030.521371,1.54
1762880030.527593,1.48
1762880030.53388,1.62
1762880030.5400808,1.66
1762880030.54627,1.61
1762880030.552608,1.6
1762880030.55893,1.57
1762880030.565112,1.6
1762880030.5713742,1.7
1762880030.5776482,1.7
1762880030.58386,1.7
1762880030.590053,1.72
1762880030.596385,1.72
1762880030.602606,1.78
1762880030.608895,1.79
1762880030.6150641,1.79
1762880030.6213388,1.94
1762880030.627747,1.89
1762880030.633848,1.82
1762880030.64011,1.94
1762880030.646346,1.89
1762880030.652572,1.86
1762880030.658945,1.91
1762880030.665056,1.87
1762880030.671346,1.81
1762880030.6776462,1.73
1762880030.683906,1.66
1762880030.689991,1.65
1762880030.696338,1.56
1762880030.70258,1.52
1762880030.708858,1.53
1762880030.715051,1.47
1762880030.721317,1.45
1762880030.727561,1.47
1762880030.73382,1.47
1762880030.740003,1.48
1762880030.7462468,1.44
1762880030.7525508,1.42
1762880030.759926,1.5
1762880030.765316,1.51
1762880030.7713652,1.49
1762880030.777719,1.43
1762880030.7838452,1.43
1762880030.7900338,1.52
1762880030.796242,1.53
1762880030.80254,1.53
1762880030.809029,1.52
1762880030.815082,1.51
1762880030.821277,1.56
1762880030.827543,1.57
1762880030.834054,1.55
1762880030.840029,1.56
1762880030.846349,1.52
1762880030.852544,1.54
1762880030.859057,1.53
1762880030.864992,1.51
1762880030.871346,1.58
1762880030.877702,1.55
1762880030.883808,1.51
1762880030.890018,1.59
1762880030.896349,1.57
1762880030.902539,1.51
1762880030.9092748,1.52
1762880030.915043,1.54
1762880030.9212952,1.54
1762880030.927566,1.54
1762880030.9338229,1.61
1762880030.9400609,1.66
1762880030.946316,1.58
1762880030.952524,1.61
1762880030.958773,1.79
1762880030.965034,1.79
1762880030.971305,1.72
1762880030.977442,1.7
1762880030.983775,1.71
1762880030.9900281,1.62
1762880030.996345,1.47
1762880031.0025542,1.49
1762880031.008797,1.49
1762880031.015127,1.43
1762880031.021257,1.44
1762880031.027414,1.47
1762880031.033726,1.45
1762880031.039985,1.48
1762880031.0462358,1.43
1762880031.052578,1.48
1762880031.058835,1.49
1762880031.0649989,1.46
1762880031.0712872,1.49
1762880031.077482,1.49
1762880031.083721,1.45
1762880031.090015,1.52
1762880031.096271,1.55
1762880031.102459,1.49
1762880031.108813,1.5
1762880031.114985,1.61
1762880031.121281,1.81
1762880031.1274922,2.25
1762880031.133783,3.15
1762880031.139981,3.17
1762880031.1462002,3.17
1762880031.1526341,3.16
1762880031.158798,1.73
1762880031.165051,0.73
1762880031.171287,1.53
1762880031.182828,1.82
1762880031.203368,1.41
1762880031.203635,1.31
1762880031.204098,1.5
1762880031.204227,1.5
1762880031.232528,1.43
1762880031.233233,1.44
1762880031.2333272,1.48
1762880031.233412,1.49
1762880031.2457888,1.46
1762880031.2460642,1.5
1762880031.246326,1.46
1762880031.252779,1.5
1762880031.2594821,1.58
1762880031.2649548,1.5
1762880031.2731771,1.52
1762880031.2775528,1.57
1762880031.2837849,1.58
1762880031.289969,1.62
1762880031.296415,1.55
1762880031.3025331,1.59
1762880031.308716,1.68
1762880031.315029,1.64
1762880031.321384,1.67
1762880031.3274822,1.73
1762880031.333708,1.7
1762880031.339932,1.75
1762880031.346187,1.8
1762880031.3526459,1.84
1762880031.3587358,1.83
1762880031.364953,1.83
1762880031.37128,1.91
1762880031.377524,1.89
1762880031.383636,1.85
1762880031.389917,1.93
1762880031.396256,1.9
1762880031.402456,1.8
1762880031.408662,1.78
1762880031.41503,1.71
1762880031.421181,1.68
1762880031.427477,1.66
1762880031.433704,1.59
1762880031.4399512,1.54
1762880031.4461062,1.52
1762880031.452491,1.49
1762880031.458665,1.52
1762880031.46495,1.49
1762880031.471267,1.49
1762880031.4775019,1.51
1762880031.483745,1.47
1762880031.4899158,1.53
1762880031.4961789,1.53
1762880031.502493,1.49
1762880031.508611,1.55
1762880031.514994,1.49
1762880031.5211499,1.54
1762880031.527472,1.59
1762880031.533858,1.54
1762880031.53986,1.59
1762880031.546166,1.61
1762880031.552493,1.56
1762880031.558617,1.65
1762880031.564933,1.64
1762880031.5712562,1.63
1762880031.577343,1.59
1762880031.5836868,1.59
1762880031.5899148,1.68
1762880031.5961668,1.63
1762880031.6024692,1.64
1762880031.6087391,1.73
1762880031.61487,1.69
1762880031.621202,1.63
1762880031.627397,1.68
1762880031.633653,1.68
1762880031.63985,1.71
1762880031.6461859,1.74
1762880031.652493,1.79
1762880031.658765,1.84
1762880031.664886,1.77
1762880031.67119,1.91
1762880031.677464,2.02
1762880031.683917,1.91
1762880031.689989,1.85
1762880031.696078,1.89
1762880031.70258,1.85
1762880031.708624,1.79
1762880031.714918,1.7
1762880031.721107,1.7
1762880031.727474,1.73
1762880031.733696,1.65
1762880031.740643,1.73
1762880031.7460601,1.78
1762880031.752345,1.71
1762880031.758721,1.72
1762880031.764826,1.73
1762880031.7711308,1.73
1762880031.777348,1.8
1762880031.7836318,1.74
1762880031.789867,1.81
1762880031.796118,1.88
1762880031.802412,1.79
1762880031.808581,1.82
1762880031.814917,1.83
1762880031.8210392,1.91
1762880031.827381,1.91
1762880031.833576,1.96
1762880031.839843,2.36
1762880031.846105,3.03
1762880031.8525188,3.17
1762880031.8585658,3.17
1762880031.8648682,3.18
1762880031.871069,3.17
1762880031.8773031,2.55
1762880031.88374,1.25
1762880031.890378,1.69
1762880031.8960938,2.19
1762880031.902411,1.9
1762880031.908562,1.7
1762880031.9149408,1.82
1762880031.921196,1.95
1762880031.927242,1.91
1762880031.9337878,1.8
1762880031.940392,1.88
1762880031.946033,1.93
1762880031.9523442,1.93
1762880031.958583,1.96
1762880031.964865,1.94
1762880031.9710872,1.96
1762880031.977252,1.96
1762880031.983597,1.94
1762880031.990433,2.04
1762880031.996046,2.05
1762880032.0024478,1.99
1762880032.00866,2.04
1762880032.014909,2.04
1762880032.0211132,2.08
1762880032.027267,2.11
1762880032.0335732,2.09
1762880032.0398688,2.18
1762880032.046061,2.2
1762880032.052308,2.14
1762880032.058601,2.25
1762880032.064777,2.26
1762880032.0710819,2.27
1762880032.077387,2.31
1762880032.0836768,2.32
1762880032.0899682,2.35
1762880032.096087,2.31
1762880032.1023948,2.32
1762880032.108626,2.4
1762880032.114856,2.31
1762880032.1213472,2.18
1762880032.127295,2.14
1762880032.1335838,2.11
1762880032.140037,2.13
1762880032.146101,2.02
1762880032.152444,1.87
1762880032.1585128,1.94
1762880032.164756,1.88
1762880032.171104,1.86
1762880032.177265,1.89
1762880032.18351,1.81
1762880032.189904,1.83
1762880032.195977,1.86
1762880032.2022982,1.83
1762880032.208556,1.86
1762880032.214738,1.81
1762880032.2211509,1.81
1762880032.2272482,1.86
1762880032.2335172,1.78
1762880032.240007,1.84
1762880032.246034,1.83
1762880032.252365,1.79
1762880032.2586188,1.88
1762880032.2648451,1.81
1762880032.2710788,1.76
1762880032.277581,1.87
1762880032.283533,1.82
1762880032.2897851,1.81
1762880032.295973,1.81
1762880032.302328,1.82
1762880032.308495,1.84
1762880032.31477,1.78
1762880032.3209732,1.81
1762880032.327296,1.82
1762880032.333527,1.74
1762880032.3399968,1.79
1762880032.345962,1.79
1762880032.3523,1.74
1762880032.358523,1.77
1762880032.36481,1.79
1762880032.371182,1.86
1762880032.377281,1.93
1762880032.3834891,1.8
1762880032.389764,1.86
1762880032.396019,2.02
1762880032.4024131,1.96
1762880032.4084759,1.89
1762880032.414767,1.88
1762880032.421003,1.91
1762880032.427259,1.82
1762880032.4335701,1.7
1762880032.4398441,1.69
1762880032.445966,1.66
1762880032.452267,1.57
1762880032.458405,1.57
1762880032.464706,1.53
1762880032.470974,1.52
1762880032.4772549,1.55
1762880032.483456,1.48
1762880032.499569,1.47
1762880032.5162618,1.4
1762880032.532129,1.41
1762880032.542339,1.51
1762880032.5424309,1.45
1762880032.542494,1.41
1762880032.542552,1.43
1762880032.542613,1.37
1762880032.544288,1.42
1762880032.556884,1.43
1762880032.556969,1.35
1762880032.55921,1.48
1762880032.5647,1.67
1762880032.5725272,2.23
1762880032.577186,3.14
1762880032.583414,3.17
1762880032.58984,3.17
1762880032.595974,3.03
1762880032.602218,0.93
1762880032.608528,0.6
1762880032.614603,1.6
1762880032.620945,1.52
1762880032.627218,1.12
1762880032.633505,1.18
1762880032.639715,1.32
1762880032.645956,1.24
1762880032.6522088,1.17
1762880032.658407,1.24
1762880032.664646,1.23
1762880032.670951,1.24
1762880032.6771939,1.29
1762880032.683419,1.25
1762880032.689783,1.26
1762880032.695977,1.24
1762880032.7021701,1.28
1762880032.7084742,1.31
1762880032.714836,1.26
1762880032.720994,1.29
1762880032.7272031,1.34
1762880032.73339,1.27
1762880032.739692,1.33
1762880032.7459042,1.4
1762880032.752256,1.39
1762880032.7584069,1.39
1762880032.764668,1.33
1762880032.770925,1.41
1762880032.777122,1.5
1762880032.783492,1.42
1762880032.789741,1.51
1762880032.795993,1.57
1762880032.802269,1.51
1762880032.808374,1.53
1762880032.8146791,1.56
1762880032.8209238,1.55
1762880032.8271518,1.61
1762880032.833427,1.58
1762880032.8397021,1.55
1762880032.8459158,1.49
1762880032.8526049,1.4
1762880032.858411,1.4
1762880032.864741,1.38
1762880032.870902,1.28
1762880032.8772402,1.22
1762880032.883436,1.1
1762880032.889765,1.16
1762880032.895937,1.2
1762880032.902517,1.13
1762880032.908345,1.13
1762880032.9146712,1.1
1762880032.920885,1.09
1762880032.9272242,1.15
1762880032.933395,1.1
1762880032.939585,1.12
1762880032.9458072,1.12
1762880032.952086,1.11
1762880032.9584131,1.18
1762880032.9645948,1.14
1762880032.970855,1.12
1762880032.977108,1.16
1762880032.983433,1.11
1762880032.989689,1.17
1762880032.995838,1.22
1762880033.002375,1.17
1762880033.00838,1.21
1762880033.0146298,1.16
1762880033.020829,1.14
1762880033.027138,1.21
1762880033.0334442,1.2
1762880033.039626,1.2
1762880033.045859,1.17
1762880033.052693,1.18
1762880033.058379,1.2
1762880033.064808,1.13
1762880033.070796,1.12
1762880033.077182,1.21
1762880033.08341,1.17
1762880033.0896,1.13
1762880033.095819,1.15
1762880033.102318,1.18
1762880033.108427,1.15
1762880033.114547,1.15
1762880033.1208708,1.18
1762880033.12706,1.17
1762880033.133429,1.08
1762880033.1396182,1.15
1762880033.1458502,1.23
1762880033.1522582,1.17
1762880033.158339,1.19
1762880033.164604,1.28
1762880033.170964,1.3
1762880033.177036,1.29
1762880033.18331,1.31
1762880033.1896122,1.43
1762880033.1957839,1.41
1762880033.2020009,1.29
1762880033.2083158,1.33
1762880033.214571,1.26
1762880033.2207842,1.14
1762880033.227045,1.16
1762880033.23338,1.09
1762880033.239549,1.04
1762880033.245754,1.05
1762880033.25211,1.06
1762880033.258359,1.13
1762880033.264503,1.06
1762880033.270797,1.05
1762880033.277059,1.1
1762880033.2832818,1.02
1762880033.289587,1.09
1762880033.2957609,1.12
1762880033.302062,1.06
1762880033.308289,1.1
1762880033.31458,1.11
1762880033.3208342,1.08
1762880033.327123,1.12
1762880033.3334138,1.12
1762880033.339581,1.12
1762880033.3459399,1.17
1762880033.352171,1.33
1762880033.358369,1.75
1762880033.3646138,2.64
1762880033.370827,3.16
1762880033.377082,3.17
1762880033.383332,2.92
1762880033.389587,0.79
1762880033.3959029,0.36
1762880033.402205,1.42
1762880033.4085078,1.41
1762880033.414569,0.92
1762880033.4207711,0.99
1762880033.42703,1.21
1762880033.4332669,1.08
1762880033.43959,0.97
1762880033.4457521,1.09
1762880033.4520588,1.13
1762880033.458255,1.1
1762880033.464488,1.1
1762880033.470769,1.14
1762880033.4770539,1.12
1762880033.4833338,1.08
1762880033.490166,1.17
1762880033.495911,1.2
1762880033.5028212,1.18
1762880033.508285,1.19
1762880033.514549,1.17
1762880033.521618,1.21
1762880033.527009,1.23
1762880033.533312,1.26
1762880033.53953,1.32
1762880033.5457358,1.31
1762880033.552078,1.26
1762880033.558231,1.37
1762880033.5644732,1.4
1762880033.570954,1.36
1762880033.576978,1.44
1762880033.5833018,1.47
1762880033.5898,1.48
1762880033.595797,1.45
1762880033.602036,1.48
1762880033.6082501,1.62
1762880033.6145742,1.58
1762880033.620886,1.53
1762880033.627009,1.55
1762880033.633306,1.53
1762880033.639561,1.45
1762880033.645789,1.41
1762880033.652662,1.4
1762880033.658245,1.37
1762880033.6645162,1.22
1762880033.6718872,1.16
1762880033.6770182,1.2
1762880033.68325,1.19
1762880033.689654,1.17
1762880033.695744,1.16
1762880033.702663,1.14
1762880033.708242,1.17
1762880033.714515,1.16
1762880033.720783,1.13
1762880033.727007,1.19
1762880033.733249,1.2
1762880033.739598,1.21
1762880033.745748,1.2
1762880033.7527292,1.16
1762880033.7582011,1.23
1762880033.764508,1.24
1762880033.770782,1.18
1762880033.7769542,1.28
1762880033.783338,1.28
1762880033.891594,1.26
1762880033.891906,1.24
1762880033.89265,1.26
1762880033.8928719,1.31
1762880033.893286,1.23
1762880033.89362,1.23
1762880033.893832,1.3
1762880033.894054,1.29
1762880033.894273,1.27
1762880033.894494,1.28
1762880033.8948748,1.31
1762880033.8953931,1.33
1762880033.895765,1.3
1762880033.8959801,1.3
1762880033.8961651,1.34
1762880033.896349,1.26
1762880033.896729,1.3
1762880033.897016,1.37
1762880033.901999,1.33
1762880033.9082172,1.34
1762880033.914491,1.33
1762880033.9207418,1.32
1762880033.927007,1.35
1762880033.9332302,1.34
1762880033.93944,1.33
1762880033.945728,1.32
1762880033.952176,1.38
1762880033.958264,1.43
1762880033.9645178,1.39
1762880033.970767,1.42
1762880033.977194,1.53
1762880033.983158,1.52
1762880033.989457,1.51
1762880033.995738,1.62
1762880034.0019782,1.68
1762880034.0081542,1.63
1762880034.014495,1.54
1762880034.020728,1.57
1762880034.0268779,1.52
1762880034.033173,1.35
1762880034.0394518,1.4
1762880034.0456371,1.47
1762880034.051917,1.36
1762880034.0580978,1.36
1762880034.064397,1.38
1762880034.070732,1.37
1762880034.0769112,1.42
1762880034.083157,1.41
1762880034.0893672,1.41
1762880034.095659,1.41
1762880034.10187,1.4
1762880034.1081579,1.43
1762880034.114335,1.4
1762880034.120852,1.42
1762880034.126942,1.51
1762880034.133331,1.47
1762880034.139436,1.43
1762880034.145608,1.49
1762880034.15238,1.56
1762880034.158179,1.69
1762880034.164433,2.0
1762880034.170785,2.84
1762880034.176998,3.17
1762880034.183189,3.17
1762880034.189831,3.17
1762880034.195669,2.03
1762880034.202177,0.61
1762880034.2082539,1.39
1762880034.2146251,1.9
1762880034.220741,1.48
1762880034.227166,1.3
1762880034.233152,1.41
1762880034.2395399,1.48
1762880034.2458088,1.45
1762880034.251928,1.45
1762880034.2582269,1.49
1762880034.2644548,1.46
1762880034.271279,1.47
1762880034.277026,1.48
1762880034.283184,1.45
1762880034.28938,1.47
1762880034.29568,1.54
1762880034.3018188,1.54
1762880034.3082361,1.52
1762880034.3143501,1.54
1762880034.320749,1.54
1762880034.3271282,1.56
1762880034.333132,1.55
1762880034.3393779,1.58
1762880034.3457081,1.58
1762880034.351847,1.61
1762880034.3581738,1.7
1762880034.3644302,1.71
1762880034.371161,1.68
1762880034.3769028,1.72
1762880034.383151,1.76
1762880034.389302,1.79
1762880034.395543,1.85
1762880034.401848,1.82
1762880034.40815,1.86
1762880034.4143791,1.87
1762880034.420631,1.88
1762880034.4268548,1.87
1762880034.433186,1.81
1762880034.439334,1.86
1762880034.445573,1.88
1762880034.4518452,1.73
1762880034.458088,1.68
1762880034.4643252,1.67
1762880034.470655,1.63
1762880034.477047,1.59
1762880034.4831822,1.51
1762880034.489395,1.5
1762880034.4957,1.53
1762880034.501874,1.5
1762880034.508152,1.48
1762880034.514559,1.5
1762880034.5206048,1.53
1762880034.526803,1.52
1762880034.533088,1.45
1762880034.5393689,1.51
1762880034.5457458,1.52
1762880034.552813,1.52
1762880034.558075,1.56
1762880034.5644538,1.51
1762880034.570636,1.53
1762880034.5771031,1.6
1762880034.583333,1.53
1762880034.589443,1.54
1762880034.5956092,1.6
1762880034.60187,1.55
1762880034.608098,1.57
1762880034.614401,1.55
1762880034.6206,1.55
1762880034.6268349,1.6
1762880034.6330812,1.57
1762880034.639298,1.58
1762880034.645772,1.59
1762880034.651885,1.57
1762880034.65807,1.59
1762880034.66451,1.57
1762880034.670727,1.59
1762880034.676874,1.6
1762880034.683102,1.56
1762880034.689466,1.58
1762880034.695581,1.58
1762880034.701824,1.55
1762880034.708086,1.6
1762880034.714626,1.57
1762880034.7206762,1.56
1762880034.7269828,1.66
1762880034.7331111,1.62
1762880034.739341,1.57
1762880034.745562,1.57
1762880034.753077,1.57
1762880034.7582788,1.57
1762880034.764378,1.62
1762880034.770609,1.64
1762880034.77683,1.61
1762880034.783023,1.57
1762880034.789351,1.63
1762880034.7956648,1.64
1762880034.8034759,1.57
1762880034.808328,1.63
1762880034.8145988,1.72
1762880034.8206441,1.72
1762880034.8268101,1.69
1762880034.833174,1.75
1762880034.8393312,1.89
1762880034.845639,1.88
1762880034.8518028,1.74
1762880034.8582458,1.71
1762880034.8644962,1.76
1762880034.870573,1.7
1762880034.876823,1.59
1762880034.8831239,1.53
1762880034.889246,1.58
1762880034.8955011,1.62
1762880034.902105,1.54
1762880034.908046,1.52
1762880034.914305,1.57
1762880034.920683,1.58
1762880034.9267142,1.59
1762880034.932965,1.54
1762880034.9393,1.57
1762880034.945447,1.59
1762880034.95204,1.57
1762880034.957979,1.61
1762880034.964479,1.59
1762880034.970599,1.57
1762880034.976732,1.63
1762880034.9829388,1.62
1762880034.98936,1.61
1762880034.995635,1.71
1762880035.001836,1.88
1762880035.008099,2.36
1762880035.014409,3.16
1762880035.020551,3.17
1762880035.026725,3.17
1762880035.0329468,3.16
1762880035.039297,1.87
1762880035.045459,0.9
1762880035.051808,1.6
1762880035.057885,1.87
1762880035.064266,1.53
1762880035.0709429,1.46
1762880035.076701,1.6
1762880035.083091,1.53
1762880035.089312,1.52
1762880035.095454,1.58
1762880035.1017752,1.57
1762880035.1079621,1.54
1762880035.114163,1.56
1762880035.1211479,1.6
1762880035.126789,1.61
1762880035.132998,1.57
1762880035.139277,1.58
1762880035.1456351,1.64
1762880035.1516778,1.65
1762880035.15797,1.64
1762880035.16429,1.62
1762880035.170485,1.62
1762880035.176707,1.73
1762880035.183019,1.72
1762880035.189281,1.7
1762880035.195498,1.7
1762880035.202851,1.71
1762880035.2079911,1.79
1762880035.214516,1.82
1762880035.22053,1.75
1762880035.226711,1.81
1762880035.233001,1.87
1762880035.239208,1.88
1762880035.245582,1.9
1762880035.252397,1.9
1762880035.25792,1.9
1762880035.264169,1.89
1762880035.270663,1.94
1762880035.276696,1.98
1762880035.2829828,1.86
1762880035.289205,1.84
1762880035.295434,1.84
1762880035.301866,1.72
1762880035.307992,1.69
1762880035.3141491,1.68
1762880035.3205829,1.58
1762880035.326736,1.59
1762880035.333034,1.57
1762880035.339241,1.51
1762880035.3455172,1.55
1762880035.3518689,1.54
1762880035.358119,1.53
1762880035.3643131,1.53
1762880035.370547,1.51
1762880035.4069529,1.52
1762880035.412502,1.54
1762880035.412802,1.54
1762880035.41298,1.58
1762880035.413225,1.53
1762880035.4133198,1.56
1762880035.423003,1.6
1762880035.427936,1.53
1762880035.4280589,1.56
1762880035.43311,1.59
1762880035.439727,1.61
1762880035.445378,1.62
1762880035.451759,1.57
1762880035.457849,1.58
1762880035.4641721,1.57
1762880035.470398,1.58
1762880035.4767191,1.65
1762880035.482882,1.61
1762880035.489121,1.59
1762880035.4953809,1.6
1762880035.501652,1.54
1762880035.507875,1.63
1762880035.514208,1.67
1762880035.52067,1.59
1762880035.52669,1.57
1762880035.532841,1.58
1762880035.5391848,1.62
1762880035.545365,1.62
1762880035.5522728,1.58
1762880035.557844,1.63
1762880035.564325,1.63
1762880035.57048,1.6
1762880035.5766668,1.66
1762880035.582902,1.61
1762880035.589217,1.59
1762880035.5953522,1.69
1762880035.601942,1.74
1762880035.6078532,1.72
1762880035.614188,1.74
1762880035.620439,1.8
1762880035.6267562,1.89
1762880035.633023,1.89
1762880035.63908,1.83
1762880035.645398,1.78
1762880035.6519969,1.8
1762880035.657771,1.7
1762880035.664225,1.6
1762880035.670536,1.65
1762880035.676832,1.67
1762880035.682892,1.55
1762880035.689196,1.56
1762880035.695665,1.66
1762880035.702098,1.61
1762880035.7079701,1.62
1762880035.7141209,1.63
1762880035.720438,1.61
1762880035.726552,1.64
1762880035.732887,1.63
1762880035.739362,1.64
1762880035.7454772,1.67
1762880035.7520661,1.66
1762880035.7579021,1.7
1762880035.7641568,1.66
1762880035.770445,1.67
1762880035.776603,1.77
1762880035.7829068,1.81
1762880035.789257,1.96
1762880035.795329,2.59
1762880035.801609,3.16
1762880035.8078852,3.17
1762880035.814232,3.17
1762880035.821537,3.17
1762880035.826741,2.24
1762880035.83287,0.99
1762880035.839036,1.53
1762880035.845288,1.99
1762880035.851955,1.68
1762880035.857764,1.52
1762880035.864236,1.61
1762880035.870474,1.64
1762880035.876524,1.66
1762880035.882831,1.64
1762880035.8890429,1.63
1762880035.895366,1.66
1762880035.902047,1.62
1762880035.907864,1.67
1762880035.91413,1.7
1762880035.920585,1.66
1762880035.926783,1.7
1762880035.932893,1.71
1762880035.939316,1.72
1762880035.945463,1.75
1762880035.951987,1.73
1762880035.957839,1.74
1762880035.964051,1.75
1762880035.970623,1.78
1762880035.976701,1.78
1762880035.9828649,1.75
1762880035.989016,1.82
1762880035.995435,1.87
1762880036.001709,1.83
1762880036.0079622,1.88
1762880036.014154,1.91
1762880036.021039,1.91
1762880036.0268428,1.96
1762880036.032845,1.95
1762880036.0391989,1.97
1762880036.0455658,1.99
1762880036.051608,1.96
1762880036.057848,1.96
1762880036.06422,1.97
1762880036.070306,1.95
1762880036.076389,1.88
1762880036.082776,1.83
1762880036.0890062,1.75
1762880036.0952132,1.73
1762880036.101587,1.71
1762880036.107806,1.67
1762880036.114149,1.61
1762880036.1205068,1.53
1762880036.126461,1.58
1762880036.1329339,1.57
1762880036.13908,1.56
1762880036.145442,1.59
1762880036.151755,1.52
1762880036.157801,1.51
1762880036.1641111,1.57
1762880036.170374,1.55
1762880036.176556,1.58
1762880036.1827588,1.55
1762880036.189069,1.56
1762880036.195467,1.59
1762880036.202347,1.55
1762880036.20782,1.57
1762880036.21407,1.61
1762880036.220265,1.6
1762880036.22645,1.59
1762880036.2326882,1.58
1762880036.23893,1.54
1762880036.2452521,1.56
1762880036.251533,1.59
1762880036.25772,1.6
1762880036.264061,1.61
1762880036.27036,1.57
1762880036.276553,1.57
1762880036.282827,1.59
1762880036.2889779,1.55
1762880036.2954712,1.55
1762880036.3020108,1.54
1762880036.307748,1.57
1762880036.31395,1.58
1762880036.3203762,1.5
1762880036.3264441,1.58
1762880036.332955,1.59
1762880036.339066,1.53
1762880036.3454459,1.52
1762880036.351768,1.53
1762880036.357766,1.56
1762880036.36403,1.53
1762880036.3703418,1.52
1762880036.376461,1.62
1762880036.3827672,1.63
1762880036.38922,1.61
1762880036.395309,1.66
1762880036.401877,1.76
1762880036.407831,1.77
1762880036.4139898,1.69
1762880036.420237,1.67
1762880036.4265192,1.7
1762880036.432815,1.59
1762880036.439021,1.53
1762880036.44541,1.53
1762880036.452078,1.45
1762880036.457862,1.42
1762880036.464253,1.44
1762880036.470273,1.44
1762880036.47666,1.45
1762880036.482728,1.43
1762880036.489095,1.41
1762880036.495394,1.46
1762880036.501585,1.45
1762880036.5079181,1.43
1762880036.5141408,1.44
1762880036.52104,1.45
1762880036.526531,1.46
1762880036.532903,1.44
1762880036.539165,1.5
1762880036.5452192,1.53
1762880036.551575,1.46
1762880036.557888,1.54
1762880036.56394,1.7
1762880036.570478,2.01
1762880036.576468,2.98
1762880036.582881,3.17
1762880036.5891259,3.17
1762880036.5951302,3.17
1762880036.601655,2.09
1762880036.60773,0.66
1762880036.61389,1.3
1762880036.620171,1.75
1762880036.62644,1.45
1762880036.632684,1.25
1762880036.639104,1.35
1762880036.645291,1.45
1762880036.651526,1.38
1762880036.6578932,1.36
1762880036.66399,1.38
1762880036.6702452,1.37
1762880036.6765141,1.42
1762880036.682728,1.41
1762880036.688981,1.39
1762880036.6954381,1.44
1762880036.701618,1.42
1762880036.707734,1.42
1762880036.7139041,1.45
1762880036.720462,1.44
1762880036.726443,1.49
1762880036.733089,1.47
1762880036.739051,1.49
1762880036.745363,1.53
1762880036.7515469,1.5
1762880036.75778,1.52
1762880036.764009,1.59
1762880036.770175,1.58
1762880036.776365,1.61
1762880036.7827158,1.64
1762880036.7888908,1.65
1762880036.79511,1.7
1762880036.801715,1.65
1762880036.807799,1.7
1762880036.8137999,1.78
1762880036.8201652,1.73
1762880036.826329,1.69
1762880036.832628,1.73
1762880036.838793,1.78
1762880036.845079,1.74
1762880036.851768,1.63
1762880036.8813682,1.6
1762880036.887688,1.56
1762880036.887855,1.44
1762880036.9053109,1.47
1762880036.912898,1.44
1762880036.912978,1.35
1762880036.914199,1.36
1762880036.914279,1.34
1762880036.91433,1.31
1762880036.91438,1.32
1762880036.9243672,1.3
1762880036.926847,1.34
1762880036.9329019,1.32
1762880036.945448,1.29
1762880036.945626,1.32
1762880036.954512,1.33
1762880036.957592,1.35
1762880036.964232,1.36
1762880036.9701781,1.34
1762880036.976387,1.34
1762880036.982651,1.35
1762880036.988812,1.36
1762880036.995059,1.38
1762880037.001472,1.35
1762880037.007585,1.37
1762880037.0137432,1.41
1762880037.0201259,1.37
1762880037.026274,1.36
1762880037.032644,1.34
1762880037.03886,1.37
1762880037.045086,1.41
1762880037.051378,1.37
1762880037.057576,1.34
1762880037.063762,1.38
1762880037.070136,1.37
1762880037.076349,1.41
1762880037.0826151,1.38
1762880037.088948,1.33
1762880037.0951,1.39
1762880037.1014779,1.38
1762880037.107662,1.38
1762880037.113846,1.35
1762880037.120446,1.33
1762880037.1264918,1.4
1762880037.1326861,1.38
1762880037.1388319,1.33
1762880037.145213,1.35
1762880037.1515021,1.38
1762880037.157769,1.38
1762880037.163976,1.38
1762880037.170099,1.35
1762880037.176438,1.4
1762880037.182687,1.38
1762880037.188828,1.36
1762880037.195221,1.43
1762880037.201395,1.44
1762880037.2076921,1.5
1762880037.2139761,1.5
1762880037.22035,1.5
1762880037.226356,1.62
1762880037.2325802,1.64
1762880037.238898,1.58
1762880037.244998,1.57
1762880037.251307,1.55
1762880037.257728,1.52
1762880037.263787,1.45
1762880037.270117,1.37
1762880037.276266,1.39
1762880037.2826612,1.36
1762880037.2887502,1.32
1762880037.294944,1.38
1762880037.30146,1.35
1762880037.307713,1.34
1762880037.313725,1.36
1762880037.320373,1.32
1762880037.326318,1.39
1762880037.332711,1.4
1762880037.338804,1.35
1762880037.344994,1.4
1762880037.3513012,1.41
1762880037.3576078,1.41
1762880037.363766,1.45
1762880037.370155,1.44
1762880037.37629,1.46
1762880037.382859,1.53
1762880037.388772,1.65
1762880037.395095,2.07
1762880037.40139,2.89
1762880037.4075541,3.17
1762880037.413763,3.17
1762880037.4202518,3.17
1762880037.4262788,2.07
1762880037.4325602,0.62
1762880037.4387252,1.34
1762880037.4451258,1.91
1762880037.451375,1.48
1762880037.4574249,1.3
1762880037.4636931,1.51
1762880037.470171,1.49
1762880037.476469,1.45
1762880037.482608,1.5
1762880037.488956,1.49
1762880037.495222,1.5
1762880037.501343,1.5
1762880037.5077262,1.54
1762880037.514057,1.55
1762880037.5200052,1.52
1762880037.5262961,1.59
1762880037.5325708,1.59
1762880037.538861,1.56
1762880037.544939,1.61
1762880037.551351,1.63
1762880037.5577111,1.68
1762880037.563736,1.69
1762880037.5700018,1.62
1762880037.576291,1.73
1762880037.582583,1.77
1762880037.588662,1.72
1762880037.595009,1.78
1762880037.601333,1.83
1762880037.607579,1.84
1762880037.613738,1.85
1762880037.619929,1.86
1762880037.626299,1.93
1762880037.6326551,1.95
1762880037.6386921,1.9
1762880037.644934,2.0
1762880037.651283,2.02
1762880037.6575758,2.02
1762880037.6636832,2.02
1762880037.669918,1.97
1762880037.6762729,1.98
1762880037.682492,1.93
1762880037.68874,1.81
1762880037.695015,1.85
1762880037.701898,1.8
1762880037.707406,1.74
1762880037.713644,1.73
1762880037.7199879,1.72
1762880037.726487,1.76
1762880037.732569,1.71
1762880037.7386801,1.68
1762880037.745118,1.74
1762880037.752716,1.72
1762880037.7576692,1.74
1762880037.7638552,1.78
1762880037.770078,1.73
1762880037.776316,1.77
1762880037.782773,1.8
1762880037.788755,1.79
1762880037.7950459,1.85
1762880037.8012779,1.86
1762880037.807594,1.86
1762880037.813761,1.89
1762880037.819947,1.85
1762880037.8262851,1.91
1762880037.832512,1.95
1762880037.838866,1.91
1762880037.845,1.95
1762880037.852468,1.94
1762880037.857404,1.95
1762880037.863679,1.97
1762880037.8704362,1.93
1762880037.8762739,2.01
1762880037.882602,2.01
1762880037.888762,1.96
1762880037.895236,1.98
1762880037.901283,2.0
1762880037.907521,2.03
1762880037.913644,2.04
1762880037.9199932,1.97
1762880037.926195,2.0
1762880037.932471,2.05
1762880037.9386392,2.05
1762880037.9448829,2.06
1762880037.951244,1.99
1762880037.957441,2.02
1762880037.96369,2.1
1762880037.969889,2.03
1762880037.9763231,2.07
1762880037.982621,2.09
1762880037.988805,2.03
1762880037.994868,2.07
1762880038.001277,2.09
1762880038.007497,2.08
1762880038.013621,2.1
1762880038.020152,2.07
1762880038.026201,2.08
1762880038.032436,2.09
1762880038.038594,2.1
1762880038.0448809,2.15
1762880038.0522912,2.1
1762880038.057447,2.07
1762880038.0636292,2.21
1762880038.069927,2.25
1762880038.0762649,2.23
1762880038.082475,2.21
1762880038.107261,2.31
1762880038.110327,2.44
1762880038.121513,2.26
1762880038.149576,2.16
1762880038.1584141,2.27
1762880038.1586182,2.18
1762880038.158769,2.1
1762880038.158867,2.07
1762880038.158957,2.02
1762880038.1591198,2.07
1762880038.1592278,2.04
1762880038.159486,2.03
1762880038.163742,2.05
1762880038.170012,1.97
1762880038.176121,2.05
1762880038.182486,2.06
1762880038.1885371,1.96
1762880038.1948678,2.04
1762880038.2017002,2.05
1762880038.207358,2.02
1762880038.2135339,2.05
1762880038.219848,2.03
1762880038.226219,2.03
1762880038.232388,2.03
1762880038.238536,2.05
1762880038.2448409,2.24
1762880038.251177,2.48
1762880038.257368,3.14
1762880038.2635598,3.17
1762880038.269782,3.17
1762880038.276103,3.18
1762880038.282336,3.17
1762880038.28849,2.28
1762880038.2948759,1.36
1762880038.301174,1.93
1762880038.307246,2.23
1762880038.3135638,1.89
1762880038.319818,1.73
1762880038.3260531,1.89
1762880038.3323011,1.91
1762880038.338523,1.83
1762880038.344863,1.87
1762880038.3511522,1.87
1762880038.357441,1.85
1762880038.363519,1.88
1762880038.369834,1.84
1762880038.37619,1.86
1762880038.382303,1.86
1762880038.3885388,1.83
1762880038.394806,1.9
1762880038.40202,1.86
1762880038.4073641,1.85
1762880038.413523,1.9
1762880038.419916,1.85
1762880038.426018,1.85
1762880038.432394,1.86
1762880038.4385421,1.88
1762880038.444849,1.95
1762880038.4512398,1.89
1762880038.457438,1.91
1762880038.463619,1.98
1762880038.469832,1.92
1762880038.4760478,1.98
1762880038.4824378,2.05
1762880038.4885042,2.0
1762880038.49475,2.02
1762880038.501657,2.0
1762880038.507307,1.97
1762880038.5134358,2.03
1762880038.519813,2.01
1762880038.526048,1.97
1762880038.5339699,1.92
1762880038.538471,1.87
1762880038.54476,1.85
1762880038.551187,1.74
1762880038.5572941,1.67
1762880038.563503,1.69
1762880038.56971,1.55
1762880038.575992,1.53
1762880038.5841641,1.55
1762880038.5884511,1.49
1762880038.594736,1.46
1762880038.601223,1.47
1762880038.607359,1.49
1762880038.6135411,1.49
1762880038.6197262,1.43
1762880038.626004,1.43
1762880038.6323469,1.45
1762880038.638465,1.44
1762880038.644733,1.49
1762880038.6513221,1.45
1762880038.657226,1.4
1762880038.6634922,1.44
1762880038.669753,1.41
1762880038.676033,1.48
1762880038.682348,1.47
1762880038.688479,1.4
1762880038.6947,1.42
1762880038.7015512,1.42
1762880038.707241,1.44
1762880038.7134268,1.43
1762880038.719817,1.38
1762880038.7260401,1.39
1762880038.732343,1.39
1762880038.738537,1.35
1762880038.7447581,1.38
1762880038.751267,1.37
1762880038.757248,1.34
1762880038.763447,1.36
1762880038.7697978,1.31
1762880038.776015,1.31
1762880038.782448,1.35
1762880038.7884958,1.34
1762880038.794739,1.34
1762880038.801253,1.3
1762880038.807265,1.27
1762880038.813549,1.33
1762880038.829973,1.27
1762880038.840582,1.25
1762880038.840943,1.31
1762880038.8412428,1.29
1762880038.844705,1.3
1762880038.85278,1.27
1762880038.857237,1.25
1762880038.8634582,1.31
1762880038.869844,1.26
1762880038.876069,1.26
1762880038.8824089,1.21
1762880038.888427,1.24
1762880038.894728,1.32
1762880038.9014359,1.28
1762880038.9071832,1.24
1762880038.913493,1.26
1762880038.919759,1.21
1762880038.9260879,1.22
1762880038.9322398,1.25
1762880038.9384599,1.24
1762880038.944715,1.35
1762880038.9511511,1.35
1762880038.957113,1.3
1762880038.963488,1.39
1762880038.969696,1.45
1762880038.976062,1.43
1762880038.982219,1.33
1762880038.988694,1.29
1762880038.994667,1.37
1762880039.00094,1.27
1762880039.007183,1.17
1762880039.013459,1.18
1762880039.019694,1.11
1762880039.025863,1.11
1762880039.032236,1.17
1762880039.038578,1.12
1762880039.044864,1.11
1762880039.052184,1.12
1762880039.057463,1.11
1762880039.063537,1.14
1762880039.069708,1.09
1762880039.075913,1.09
1762880039.082206,1.14
1762880039.088473,1.14
1762880039.094822,1.17
1762880039.101544,1.15
1762880039.107216,1.11
1762880039.113437,1.14
1762880039.119683,1.23
1762880039.12594,1.38
1762880039.132229,1.77
1762880039.138508,2.63
1762880039.1449358,3.16
1762880039.151021,3.17
1762880039.1572769,2.83
1762880039.163546,0.73
1762880039.169905,0.39
1762880039.176073,1.4
1762880039.182227,1.37
1762880039.188572,0.93
1762880039.194883,0.97
1762880039.200887,1.06
1762880039.207139,1.03
1762880039.213352,1.05
1762880039.219666,1.03
1762880039.226062,1.04
1762880039.232128,1.01
1762880039.238436,0.99
1762880039.244603,1.12
1762880039.2511091,1.11
1762880039.257271,1.07
1762880039.2635121,1.1
1762880039.26969,1.06
1762880039.275939,1.08
1762880039.28214,1.13
1762880039.2882822,1.11
1762880039.294614,1.15
1762880039.300978,1.12
1762880039.3071098,1.11
1762880039.313335,1.18
1762880039.3195899,1.18
1762880039.3259158,1.2
1762880039.3321228,1.25
1762880039.338374,1.25
1762880039.3445601,1.29
1762880039.3510668,1.32
1762880039.357059,1.31
1762880039.363298,1.36
1762880039.369617,1.38
1762880039.3758578,1.36
1762880039.382151,1.38
1762880039.3883169,1.4
1762880039.394578,1.41
1762880039.40097,1.4
1762880039.407064,1.39
1762880039.4136891,1.37
1762880039.419639,1.32
1762880039.425855,1.25
1762880039.432425,1.17
1762880039.438307,1.12
1762880039.444541,1.14
1762880039.45084,1.06
1762880039.457084,1.01
1762880039.463445,1.06
1762880039.469569,0.99
1762880039.475859,1.01
1762880039.482424,1.04
1762880039.488254,0.96
1762880039.49453,1.04
1762880039.5059268,1.07
1762880039.510981,0.99
1762880039.5394292,1.0
1762880039.544091,1.05
1762880039.544252,1.08
1762880039.544339,1.09
1762880039.54735,1.05
1762880039.547503,1.08
1762880039.552022,1.09
1762880039.557612,1.08
1762880039.563838,1.1
1762880039.570621,1.07
1762880039.5759292,1.1
1762880039.582289,1.13
1762880039.591821,1.1
1762880039.5946848,1.14
1762880039.601951,1.12
1762880039.6070988,1.09
1762880039.6133041,1.17
1762880039.6196952,1.13
1762880039.625858,1.13
1762880039.632097,1.16
1762880039.6385112,1.11
1762880039.6445508,1.16
1762880039.6508641,1.16
1762880039.6571012,1.12
1762880039.6633961,1.17
1762880039.669548,1.15
1762880039.675796,1.12
1762880039.682771,1.2
1762880039.6883352,1.16
1762880039.694603,1.16
1762880039.70098,1.17
1762880039.707047,1.14
1762880039.713336,1.2
1762880039.7196229,1.23
1762880039.725796,1.2
1762880039.732196,1.19
1762880039.738225,1.18
1762880039.744622,1.24
1762880039.751015,1.29
1762880039.7570791,1.32
1762880039.7634199,1.36
1762880039.7696261,1.36
1762880039.775787,1.43
1762880039.782752,1.47
1762880039.788331,1.4
1762880039.794474,1.39
1762880039.801306,1.41
1762880039.807105,1.29
1762880039.813239,1.23
1762880039.8196049,1.2
1762880039.82586,1.24
1762880039.8334432,1.25
1762880039.8383942,1.18
1762880039.844722,1.24
1762880039.8513112,1.24
1762880039.8570611,1.2
1762880039.863212,1.28
1762880039.869441,1.26
1762880039.8757691,1.25
1762880039.8829231,1.29
1762880039.888266,1.25
1762880039.8944159,1.26
1762880039.901074,1.29
1762880039.907049,1.31
1762880039.913255,1.33
1762880039.919449,1.29
1762880039.9257998,1.33
1762880039.933402,1.48
1762880039.9382222,1.69
1762880039.944479,2.39
1762880039.950787,3.16
1762880039.956971,3.17
1762880039.963372,3.17
1762880039.9695308,2.61
1762880039.9757109,0.7
1762880039.982112,1.02
1762880039.9882162,1.68
1762880039.994453,1.43
1762880040.001955,1.16
1762880040.006965,1.29
1762880040.013164,1.38
1762880040.019574,1.3
1762880040.025789,1.28
1762880040.032661,1.34
1762880040.038187,1.34
1762880040.044419,1.34
1762880040.050952,1.33
1762880040.056927,1.35
1762880040.063141,1.43
1762880040.069483,1.38
1762880040.075661,1.39
1762880040.082226,1.44
1762880040.0881531,1.46
1762880040.0944152,1.47
1762880040.100845,1.42
1762880040.10707,1.47
1762880040.113315,1.54
1762880040.11941,1.51
1762880040.125692,1.54
1762880040.132044,1.62
1762880040.138478,1.57
1762880040.144421,1.6
1762880040.1507,1.62
1762880040.157089,1.64
1762880040.1632051,1.74
1762880040.169687,1.72
1762880040.175713,1.73
1762880040.182085,1.79
1762880040.1882849,1.72
1762880040.194394,1.8
1762880040.200758,1.81
1762880040.206971,1.77
1762880040.213171,1.78
1762880040.2196229,1.75
1762880040.2257438,1.72
1762880040.232345,1.64
1762880040.2383082,1.51
1762880040.244726,1.54
1762880040.251012,1.57
1762880040.256952,1.49
1762880040.263346,1.46
1762880040.269574,1.39
1762880040.275681,1.42
1762880040.283266,1.43
1762880040.288244,1.43
1762880040.294625,1.44
1762880040.300649,1.41
1762880040.307186,1.39
1762880040.3131258,1.46
1762880040.319453,1.43
1762880040.325671,1.43
1762880040.3323882,1.45
1762880040.3382661,1.44
1762880040.3444679,1.51
1762880040.350731,1.46
1762880040.357065,1.45
1762880040.363186,1.54
1762880040.3695061,1.51
1762880040.3756878,1.49
1762880040.382111,1.55
1762880040.388244,1.52
1762880040.394615,1.51
1762880040.4009302,1.53
1762880040.4068701,1.56
1762880040.413229,1.55
1762880040.419574,1.49
1762880040.4256158,1.52
1762880040.431983,1.59
1762880040.438158,1.53
1762880040.444403,1.56
1762880040.450749,1.52
1762880040.4568572,1.49
1762880040.463328,1.57
1762880040.469385,1.55
1762880040.47566,1.52
1762880040.481924,1.56
1762880040.488111,1.54
1762880040.4944,1.54
1762880040.500708,1.55
1762880040.506879,1.56
1762880040.513141,1.56
1762880040.5194361,1.52
1762880040.52559,1.59
1762880040.5325282,1.64
1762880040.538185,1.62
1762880040.5444539,1.68
1762880040.55082,1.68
1762880040.556936,1.71
1762880040.563081,1.81
1762880040.56933,1.79
1762880040.575677,1.76
1762880040.5823622,1.78
1762880040.588015,1.7
1762880040.5945349,1.62
1762880040.600756,1.56
1762880040.60708,1.56
1762880040.6131682,1.54
1762880040.619336,1.5
1762880040.625648,1.52
1762880040.631961,1.56
1762880040.63817,1.51
1762880040.644537,1.53
1762880040.6506891,1.55
1762880040.656918,1.53
1762880040.6632261,1.61
1762880040.6693592,1.53
1762880040.675605,1.52
1762880040.6829991,1.63
1762880040.688118,1.58
1762880040.694564,1.6
1762880040.700765,1.62
1762880040.70694,1.58
1762880040.7132852,1.66
1762880040.719407,1.71
1762880040.7256398,1.96
1762880040.7321851,2.77
1762880040.73809,3.17
1762880040.744378,3.17
1762880040.75068,3.17
1762880040.756811,3.13
1762880040.763183,1.5
1762880040.769612,0.95
1762880040.7755232,1.68
1762880040.782457,1.86
1762880040.7880309,1.46
1762880040.794525,1.42
1762880040.800736,1.58
1762880040.8068469,1.58
1762880040.813281,1.55
1762880040.8194828,1.49
1762880040.8255901,1.56
1762880040.831915,1.62
1762880040.8381948,1.54
1762880040.844526,1.52
1762880040.850715,1.56
1762880040.856977,1.61
1762880040.863101,1.65
1762880040.8693461,1.57
1762880040.875582,1.58
1762880040.882439,1.69
1762880040.888119,1.62
1762880040.894491,1.65
1762880040.900664,1.72
1762880040.90699,1.65
1762880040.9130821,1.68
1762880040.919381,1.73
1762880040.925511,1.74
1762880040.932822,1.79
1762880040.938039,1.75
1762880040.9445179,1.81
1762880040.9507551,1.86
1762880040.956915,1.83
1762880040.963416,1.91
1762880040.9774542,1.87
1762880040.987357,1.88
1762880040.9899242,1.96
1762880040.9923258,1.89
1762880041.001345,1.9
1762880041.001915,1.94
1762880041.016611,1.85
1762880041.017199,1.85
1762880041.019702,1.76
1762880041.025729,1.69
1762880041.0384278,1.67
1762880041.0385122,1.58
1762880041.0442219,1.56
1762880041.050549,1.55
1762880041.0586371,1.52
1762880041.0639749,1.52
1762880041.0692701,1.53
1762880041.075779,1.49
1762880041.082248,1.49
1762880041.08807,1.49
1762880041.094422,1.52
1762880041.100542,1.51
1762880041.106804,1.48
1762880041.11316,1.51
1762880041.11936,1.48
1762880041.125569,1.53
1762880041.132024,1.59
1762880041.137975,1.51
1762880041.1444411,1.53
1762880041.150639,1.54
1762880041.1568289,1.52
1762880041.163077,1.58
1762880041.169339,1.56
1762880041.175504,1.55
1762880041.182357,1.61
1762880041.1880372,1.56
1762880041.19431,1.56
1762880041.2006552,1.6
1762880041.2067819,1.57
1762880041.213064,1.59
1762880041.219394,1.58
1762880041.225485,1.54
1762880041.231837,1.56
1762880041.238011,1.56
1762880041.2442648,1.61
1762880041.2507079,1.58
1762880041.256809,1.52
1762880041.2630348,1.57
1762880041.269375,1.57
1762880041.275441,1.54
1762880041.2818549,1.57
1762880041.2880168,1.54
1762880041.294235,1.56
1762880041.3006232,1.57
1762880041.3066711,1.54
1762880041.3131049,1.58
1762880041.319386,1.57
1762880041.325523,1.55
1762880041.331805,1.59
1762880041.338022,1.62
1762880041.344501,1.72
1762880041.350522,1.7
1762880041.356871,1.67
1762880041.363084,1.83
1762880041.369319,1.87
1762880041.375369,1.74
1762880041.382059,1.72
1762880041.3880599,1.72
1762880041.394649,1.66
1762880041.400604,1.55
1762880041.4067671,1.52
1762880041.412985,1.55
1762880041.4193358,1.51
1762880041.4254541,1.46
1762880041.4323761,1.52
1762880041.437977,1.49
1762880041.444293,1.49
1762880041.450604,1.52
1762880041.456703,1.51
1762880041.4631848,1.52
1762880041.4692202,1.52
1762880041.475483,1.5
1762880041.4821901,1.51
1762880041.48803,1.55
1762880041.4944,1.58
1762880041.500691,1.55
1762880041.506955,1.5
1762880041.5131478,1.58
1762880041.5193222,1.68
1762880041.525532,1.82
1762880041.5323288,2.35
1762880041.5380218,3.16
1762880041.544427,3.17
1762880041.5508559,3.17
1762880041.556702,3.16
1762880041.5629828,1.91
1762880041.569271,0.75
1762880041.5754728,1.53
1762880041.58193,1.91
1762880041.588039,1.42
1762880041.594229,1.34
1762880041.600659,1.55
1762880041.606644,1.49
1762880041.613081,1.47
1762880041.619262,1.5
1762880041.625501,1.49
1762880041.6317282,1.51
1762880041.6380968,1.45
1762880041.6443799,1.52
1762880041.650569,1.57
1762880041.656963,1.51
1762880041.663084,1.56
1762880041.6693451,1.55
1762880041.6754491,1.53
1762880041.6822798,1.61
1762880041.688076,1.6
1762880041.6941981,1.57
1762880041.700916,1.61
1762880041.706651,1.65
1762880041.712944,1.69
1762880041.719397,1.69
1762880041.7255738,1.69
1762880041.7318301,1.7
1762880041.737964,1.69
1762880041.74441,1.77
1762880041.750518,1.81
1762880041.756706,1.77
1762880041.763152,1.83
1762880041.769164,1.84
1762880041.775486,1.83
1762880041.781724,1.92
1762880041.787909,1.88
1762880041.794291,1.86
1762880041.800454,1.87
1762880041.806656,1.82
1762880041.8131998,1.82
1762880041.8191628,1.73
1762880041.825481,1.64
1762880041.831669,1.63
1762880041.837895,1.56
1762880041.844249,1.51
1762880041.850396,1.47
1762880041.856777,1.43
1762880041.8630478,1.46
1762880041.869301,1.41
1762880041.8753998,1.4
1762880041.8817332,1.47
1762880041.8878279,1.43
1762880041.89434,1.42
1762880041.9005299,1.45
1762880041.9066088,1.41
1762880041.912941,1.45
1762880041.919177,1.43
1762880041.9254148,1.42
1762880041.9316092,1.49
1762880041.937824,1.46
1762880041.944107,1.48
1762880041.9503932,1.49
1762880041.9566238,1.44
1762880041.962975,1.49
1762880041.969337,1.5
1762880041.975425,1.49
1762880041.982826,1.52
1762880041.9878988,1.5
1762880041.994278,1.46
1762880042.0004349,1.48
1762880042.006807,1.5
1762880042.012979,1.51
1762880042.019066,1.46
1762880042.025292,1.45
1762880042.031956,1.5
1762880042.0378082,1.46
1762880042.044126,1.45
1762880042.050328,1.48
1762880042.0565639,1.43
1762880042.0629141,1.46
1762880042.069195,1.48
1762880042.0753322,1.48
1762880042.081816,1.47
1762880042.087958,1.44
1762880042.094292,1.49
1762880042.100464,1.49
1762880042.106693,1.44
1762880042.11323,1.49
1762880042.119104,1.49
1762880042.1253529,1.43
1762880042.131992,1.49
1762880042.137844,1.5
1762880042.1442099,1.48
1762880042.150338,1.47
1762880042.1567712,1.47
1762880042.162953,1.5
1762880042.169229,1.46
1762880042.175315,1.47
1762880042.181912,1.52
1762880042.187814,1.49
1762880042.194138,1.49
1762880042.200355,1.49
1762880042.2064981,1.47
1762880042.212797,1.52
1762880042.2190568,1.52
1762880042.225185,1.52
1762880042.2316191,1.63
1762880042.2377942,1.62
1762880042.244092,1.6
1762880042.250565,1.71
1762880042.256553,1.74
1762880042.262881,1.71
1762880042.269067,1.66
1762880042.275254,1.67
1762880042.281656,1.67
1762880042.287765,1.54
1762880042.29409,1.48
1762880042.300263,1.49
1762880042.306549,1.47
1762880042.312866,1.47
1762880042.319154,1.44
1762880042.3254552,1.45
1762880042.3316638,1.52
1762880042.3376908,1.48
1762880042.344194,1.44
1762880042.350364,1.46
1762880042.356517,1.47
1762880042.362814,1.53
1762880042.369003,1.52
1762880042.375335,1.44
1762880042.382004,1.51
1762880042.3878138,1.53
1762880042.3942358,1.53
1762880042.400311,1.55
1762880042.406463,1.58
1762880042.412858,1.73
1762880042.419133,2.1
1762880042.42525,2.96
1762880042.431535,3.17
1762880042.437731,3.17
1762880042.4440918,3.17
1762880042.4502559,2.26
1762880042.456497,0.69
1762880042.4628239,1.38
1762880042.469079,1.92
1762880042.4752781,1.46
1762880042.481735,1.31
1762880042.487766,1.49
1762880042.4941728,1.5
1762880042.500266,1.42
1762880042.506639,1.44
1762880042.512866,1.52
1762880042.5190752,1.48
1762880042.52529,1.41
1762880042.531986,1.51
1762880042.546465,1.52
1762880042.546646,1.47
1762880042.5790458,1.51
1762880042.58402,1.56
1762880042.5842078,1.56
1762880042.600518,1.51
1762880042.60065,1.53
1762880042.6076102,1.63
1762880042.6078248,1.58
1762880042.6080499,1.58
1762880042.608206,1.63
1762880042.6082828,1.62
1762880042.612747,1.63
1762880042.618948,1.65
1762880042.6252658,1.67
1762880042.6315122,1.76
1762880042.637661,1.77
1762880042.644068,1.78
1762880042.6502452,1.82
1762880042.6564522,1.78
1762880042.662878,1.86
1762880042.669078,1.91
1762880042.675214,1.87
1762880042.6815722,1.89
1762880042.687762,1.84
1762880042.693949,1.84
1762880042.7002082,1.85
1762880042.7064772,1.75
1762880042.7129002,1.7
1762880042.719109,1.65
1762880042.725211,1.56
1762880042.7316139,1.53
1762880042.737718,1.5
1762880042.744,1.49
1762880042.7501812,1.47
1762880042.756452,1.39
1762880042.7628531,1.45
1762880042.7689369,1.47
1762880042.775136,1.42
1762880042.781688,1.43
1762880042.787789,1.43
1762880042.7939498,1.41
1762880042.800222,1.45
1762880042.806657,1.47
1762880042.8131871,1.49
1762880042.818892,1.48
1762880042.825418,1.41
1762880042.831477,1.49
1762880042.837734,1.5
1762880042.8439958,1.5
1762880042.8501818,1.49
1762880042.85667,1.45
1762880042.8636642,1.51
1762880042.868908,1.53
1762880042.8752031,1.5
1762880042.88144,1.5
1762880042.887659,1.49
1762880042.8939881,1.52
1762880042.900204,1.5
1762880042.906434,1.5
1762880042.913877,1.56
1762880042.918931,1.5
1762880042.925118,1.47
1762880042.931457,1.52
1762880042.9376378,1.52
1762880042.9439502,1.49
1762880042.9501781,1.5
1762880042.956403,1.49
1762880042.962778,1.51
1762880042.969144,1.52
1762880042.9751098,1.49
1762880042.981498,1.5
1762880042.987808,1.5
1762880042.993929,1.5
1762880043.0002692,1.51
1762880043.006409,1.48
1762880043.0126588,1.53
1762880043.018904,1.52
1762880043.025155,1.48
1762880043.031431,1.53
1762880043.037599,1.53
1762880043.043995,1.51
1762880043.050171,1.51
1762880043.056413,1.51
1762880043.062816,1.55
1762880043.068908,1.51
1762880043.075188,1.49
1762880043.081373,1.57
1762880043.08766,1.55
1762880043.0939121,1.51
1762880043.100141,1.53
1762880043.106364,1.55
1762880043.112996,1.55
1762880043.1189702,1.53
1762880043.125063,1.54
1762880043.131445,1.64
1762880043.1376069,1.67
1762880043.143924,1.66
1762880043.1501179,1.71
1762880043.156335,1.75
1762880043.1626902,1.77
1762880043.168797,1.69
1762880043.175029,1.64
1762880043.18139,1.72
1762880043.1875641,1.62
1762880043.193849,1.49
1762880043.2000031,1.48
1762880043.206469,1.47
1762880043.212639,1.53
1762880043.218902,1.52
1762880043.225051,1.48
1762880043.2312331,1.5
1762880043.237555,1.47
1762880043.2438028,1.49
1762880043.250131,1.54
1762880043.2564511,1.51
1762880043.2626371,1.51
1762880043.268836,1.52
1762880043.275072,1.52
1762880043.281322,1.56
1762880043.287719,1.55
1762880043.293876,1.51
1762880043.300249,1.55
1762880043.306585,1.58
1762880043.3126569,1.74
1762880043.319041,2.1
1762880043.3251789,2.88
1762880043.331344,3.17
1762880043.33761,3.17
1762880043.343929,3.17
1762880043.350225,2.41
1762880043.3563032,0.73
1762880043.3626409,1.28
1762880043.36876,1.89
1762880043.375371,1.56
1762880043.3813398,1.38
1762880043.387554,1.49
1762880043.393791,1.52
1762880043.400003,1.51
1762880043.4062378,1.44
1762880043.412544,1.48
1762880043.418935,1.51
1762880043.425107,1.49
1762880043.431424,1.52
1762880043.437525,1.52
1762880043.443844,1.51
1762880043.45004,1.56
1762880043.456321,1.53
1762880043.4627159,1.54
1762880043.468868,1.59
1762880043.4751282,1.58
1762880043.481605,1.59
1762880043.487681,1.58
1762880043.493821,1.63
1762880043.500171,1.67
1762880043.506335,1.62
1762880043.5132759,1.66
1762880043.518883,1.71
1762880043.525255,1.69
1762880043.5312572,1.74
1762880043.5375628,1.76
1762880043.543843,1.78
1762880043.550248,1.85
1762880043.556332,1.8
1762880043.5625741,1.83
1762880043.568907,1.89
1762880043.575213,1.86
1762880043.581334,1.87
1762880043.587531,1.87
1762880043.593801,1.86
1762880043.600142,1.83
1762880043.606282,1.76
1762880043.613125,1.72
1762880043.6188102,1.67
1762880043.625061,1.58
1762880043.63193,1.54
1762880043.6374578,1.49
1762880043.643865,1.5
1762880043.6501231,1.48
1762880043.6562738,1.41
1762880043.662741,1.44
1762880043.6691048,1.45
1762880043.675133,1.46
1762880043.681362,1.47
1762880043.687593,1.42
1762880043.6937869,1.41
1762880043.700214,1.47
1762880043.706253,1.4
1762880043.712595,1.46
1762880043.718741,1.48
1762880043.725019,1.46
1762880043.731275,1.49
1762880043.737498,1.43
1762880043.743833,1.46
1762880043.750036,1.54
1762880043.756225,1.49
1762880043.76244,1.47
1762880043.7687109,1.52
1762880043.774987,1.53
1762880043.781329,1.52
1762880043.787467,1.49
1762880043.793749,1.52
1762880043.7999191,1.52
1762880043.8062022,1.47
1762880043.812563,1.5
1762880043.818691,1.52
1762880043.824927,1.47
1762880043.8311858,1.46
1762880043.837421,1.49
1762880043.843699,1.52
1762880043.849935,1.53
1762880043.85619,1.45
1762880043.8625731,1.46
1762880043.868754,1.53
1762880043.874938,1.51
1762880043.881254,1.54
1762880043.887485,1.51
1762880043.893989,1.49
1762880043.8999512,1.51
1762880043.906233,1.48
1762880043.912516,1.5
1762880043.918732,1.55
1762880043.9249878,1.5
1762880043.9312341,1.51
1762880043.937474,1.49
1762880043.943799,1.46
1762880043.949944,1.53
1762880043.95623,1.5
1762880043.962594,1.5
1762880043.968719,1.55
1762880043.974991,1.53
1762880043.9812548,1.54
1762880043.9874911,1.5
1762880043.9937348,1.5
1762880044.000006,1.57
1762880044.0062249,1.55
1762880044.0125282,1.55
1762880044.0186539,1.55
1762880044.024982,1.49
1762880044.031142,1.55
1762880044.052126,1.53
1762880044.0523221,1.53
1762880044.05258,1.67
1762880044.056164,1.67
1762880044.0654411,1.69
1762880044.068623,1.7
1762880044.074854,1.74
1762880044.081264,1.81
1762880044.0873978,1.69
1762880044.093653,1.64
1762880044.099892,1.68
1762880044.106189,1.59
1762880044.112514,1.48
1762880044.118598,1.5
1762880044.127541,1.48
1762880044.161572,1.47
1762880044.181888,1.51
1762880044.182152,1.52
1762880044.18237,1.52
1762880044.18694,1.5
1762880044.1871161,1.49
1762880044.1892118,1.48
1762880044.1894798,1.51
1762880044.189777,1.58
1762880044.1900392,1.51
1762880044.196828,1.53
1762880044.200589,1.59
1762880044.206801,1.51
1762880044.212545,1.5
1762880044.219794,1.56
1762880044.225162,1.65
1762880044.235349,1.93
1762880044.2374778,2.59
1762880044.24445,3.16
1762880044.249969,3.17
1762880044.256214,3.17
1762880044.262408,3.01
1762880044.2689338,1.14
1762880044.274957,0.94
1762880044.281182,1.82
1762880044.2873988,1.73
1762880044.2935739,1.34
1762880044.299909,1.44
1762880044.30608,1.52
1762880044.312385,1.5
1762880044.318706,1.5
1762880044.3250382,1.5
1762880044.331081,1.48
1762880044.337379,1.49
1762880044.343711,1.5
1762880044.349836,1.51
1762880044.356141,1.55
1762880044.3624709,1.53
1762880044.368633,1.48
1762880044.375047,1.58
1762880044.381112,1.57
1762880044.387448,1.56
1762880044.393596,1.64
1762880044.399925,1.55
1762880044.406181,1.61
1762880044.412468,1.64
1762880044.418706,1.59
1762880044.425032,1.71
1762880044.4311008,1.67
1762880044.437391,1.69
1762880044.443677,1.77
1762880044.449912,1.71
1762880044.456349,1.76
1762880044.462373,1.82
1762880044.468609,1.79
1762880044.474994,1.89
1762880044.48128,1.86
1762880044.4873888,1.83
1762880044.493723,1.92
1762880044.499993,1.85
1762880044.506109,1.86
1762880044.512458,1.88
1762880044.518816,1.78
1762880044.5248551,1.74
1762880044.531104,1.66
1762880044.53742,1.59
1762880044.5436642,1.62
1762880044.549835,1.5
1762880044.556054,1.5
1762880044.562405,1.52
1762880044.568537,1.42
1762880044.574809,1.47
1762880044.581184,1.43
1762880044.587435,1.41
1762880044.593654,1.49
1762880044.599881,1.43
1762880044.606072,1.49
1762880044.6125388,1.46
1762880044.618515,1.35
1762880044.624882,1.52
1762880044.631051,1.54
1762880044.637404,1.4
1762880044.6436322,1.47
1762880044.649887,1.49
1762880044.656245,1.56
1762880044.66243,1.51
1762880044.668759,1.45
1762880044.674973,1.56
1762880044.681196,1.51
1762880044.687242,1.47
1762880044.6937191,1.57
1762880044.699787,1.5
1762880044.706047,1.49
1762880044.712301,1.53
1762880044.718536,1.48
1762880044.72484,1.55
1762880044.7310588,1.53
1762880044.737219,1.52
1762880044.743716,1.57
1762880044.749922,1.5
1762880044.7560508,1.52
1762880044.76237,1.54
1762880044.7684522,1.45
1762880044.774774,1.55
1762880044.780997,1.52
1762880044.7872891,1.48
1762880044.7946088,1.59
1762880044.799794,1.46
1762880044.8061829,1.46
1762880044.8123379,1.54
1762880044.818702,1.48
1762880044.8249369,1.59
1762880044.8311439,1.53
1762880044.837322,1.45
1762880044.843683,1.53
1762880044.849808,1.52
1762880044.856055,1.55
1762880044.862381,1.56
1762880044.868682,1.48
1762880044.8750029,1.63
1762880044.8810198,1.62
1762880044.887209,1.54
1762880044.893721,1.69
1762880044.89985,1.74
1762880044.906125,1.76
1762880044.912311,1.77
1762880044.918587,1.63
1762880044.924864,1.72
1762880044.931137,1.63
1762880044.937257,1.47
1762880044.943597,1.57
1762880044.9497669,1.47
1762880044.9562829,1.46
1762880044.9623191,1.52
1762880044.968456,1.42
1762880044.975028,1.5
1762880044.981141,1.49
1762880044.987413,1.48
1762880044.993692,1.52
1762880044.999827,1.43
1762880045.006277,1.46
1762880045.012345,1.54
1762880045.018642,1.5
1762880045.024899,1.53
1762880045.0310311,1.53
1762880045.037291,1.52
1762880045.043972,1.57
1762880045.049831,1.52
1762880045.055993,1.64
1762880045.0622542,1.89
1762880045.068406,2.34
1762880045.074927,3.16
1762880045.081121,3.17
1762880045.0873642,3.17
1762880045.093824,3.15
1762880045.0998242,1.55
1762880045.106006,0.79
1762880045.112334,1.59
1762880045.1185741,1.69
1762880045.125206,1.43
1762880045.131078,1.42
1762880045.13731,1.46
1762880045.143571,1.51
1762880045.1497889,1.46
1762880045.156088,1.42
1762880045.162188,1.51
1762880045.16849,1.52
1762880045.174686,1.46
1762880045.181036,1.46
1762880045.187159,1.47
1762880045.193624,1.53
1762880045.199724,1.51
1762880045.2061272,1.51
1762880045.212256,1.57
1762880045.2184849,1.54
1762880045.2246459,1.56
1762880045.230963,1.57
1762880045.2371929,1.51
1762880045.2433789,1.63
1762880045.249726,1.64
1762880045.2560158,1.58
1762880045.262198,1.63
1762880045.268439,1.67
1762880045.274812,1.74
1762880045.281058,1.76
1762880045.287342,1.71
1762880045.293501,1.77
1762880045.2998762,1.81
1762880045.306068,1.79
1762880045.312214,1.82
1762880045.318611,1.76
1762880045.3248188,1.82
1762880045.330952,1.88
1762880045.3372319,1.83
1762880045.3433988,1.81
1762880045.3496761,1.74
1762880045.356063,1.66
1762880045.362459,1.63
1762880045.368341,1.53
1762880045.37476,1.56
1762880045.380904,1.56
1762880045.387095,1.43
1762880045.3934379,1.41
1762880045.3996422,1.4
1762880045.405844,1.43
1762880045.41215,1.46
1762880045.418491,1.4
1762880045.4246259,1.39
1762880045.43106,1.41
1762880045.437119,1.4
1762880045.443427,1.49
1762880045.449666,1.42
1762880045.455926,1.38
1762880045.462133,1.48
1762880045.468684,1.44
1762880045.474693,1.45
1762880045.480957,1.48
1762880045.4872599,1.43
1762880045.4936252,1.49
1762880045.499676,1.49
1762880045.5058491,1.52
1762880045.5121222,1.51
1762880045.518383,1.46
1762880045.5246131,1.52
1762880045.530912,1.49
1762880045.537206,1.42
1762880045.543529,1.52
1762880045.549653,1.54
1762880045.5559628,1.47
1762880045.5621219,1.5
1762880045.568382,1.5
1762880045.574618,1.48
1762880045.580899,1.5
1762880045.587123,1.5
1762880045.593621,1.51
1762880045.599589,1.44
1762880045.606133,1.46
1762880045.6122298,1.49
1762880045.618467,1.51
1762880045.6246898,1.52
1762880045.6309152,1.51
1762880045.637385,1.45
1762880045.6434062,1.5
1762880045.649781,1.52
1762880045.6559339,1.5
1762880045.662103,1.5
1762880045.66857,1.46
1762880045.674655,1.51
1762880045.6808288,1.52
1762880045.687124,1.47
1762880045.693598,1.52
1762880045.69962,1.51
1762880045.705866,1.47
1762880045.712106,1.53
1762880045.7183151,1.6
1762880045.7245781,1.66
1762880045.7307851,1.63
1762880045.7370849,1.59
1762880045.743477,1.76
1762880045.769227,1.78
1762880045.7953851,1.69
1762880045.7959292,1.67
1762880045.796011,1.66
1762880045.802169,1.62
1762880045.804443,1.53
1762880045.80455,1.47
1762880045.8054578,1.49
1762880045.8055308,1.49
1762880045.807032,1.45
1762880045.8120809,1.47
1762880045.81836,1.45
1762880045.8260858,1.48
1762880045.830793,1.48
1762880045.8370922,1.45
1762880045.8436348,1.51
1762880045.8495638,1.48
1762880045.855864,1.46
1762880045.862048,1.54
1762880045.86836,1.49
1762880045.874571,1.51
1762880045.880769,1.57
1762880045.88717,1.52
1762880045.893384,1.54
1762880045.899565,1.64
1762880045.905947,1.85
1762880045.912151,2.52
1762880045.918317,3.17
1762880045.9246058,3.17
1762880045.930916,3.17
1762880045.9369862,3.06
1762880045.943627,1.17
1762880045.949624,0.88
1762880045.9558542,1.75
1762880045.962037,1.74
1762880045.968371,1.31
1762880045.9745338,1.4
1762880045.9808471,1.57
1762880045.986961,1.46
1762880045.99333,1.42
1762880045.999489,1.48
1762880046.005703,1.5
1762880046.011959,1.49
1762880046.01826,1.45
1762880046.024589,1.5
1762880046.0308568,1.52
1762880046.0369852,1.45
1762880046.043333,1.53
1762880046.049493,1.55
1762880046.055715,1.53
1762880046.062031,1.56
1762880046.06829,1.56
1762880046.07457,1.58
1762880046.0808508,1.59
1762880046.087148,1.55
1762880046.093458,1.61
1762880046.099522,1.66
1762880046.105942,1.65
1762880046.112084,1.71
1762880046.118473,1.72
1762880046.124498,1.76
1762880046.1307771,1.78
1762880046.137085,1.76
1762880046.1432698,1.81
1762880046.149452,1.84
1762880046.155724,1.81
1762880046.162134,1.86
1762880046.168389,1.83
1762880046.174536,1.81
1762880046.1807868,1.87
1762880046.187238,1.84
1762880046.193297,1.79
1762880046.199578,1.73
1762880046.205935,1.62
1762880046.212058,1.59
1762880046.218466,1.58
1762880046.2246668,1.47
1762880046.230905,1.46
1762880046.237142,1.47
1762880046.243528,1.46
1762880046.249582,1.38
1762880046.255798,1.41
1762880046.261981,1.49
1762880046.268211,1.42
1762880046.274558,1.4
1762880046.280719,1.44
1762880046.286955,1.41
1762880046.293453,1.44
1762880046.299687,1.47
1762880046.305783,1.43
1762880046.311976,1.45
1762880046.318261,1.47
1762880046.324481,1.5
1762880046.330833,1.49
1762880046.3370292,1.43
1762880046.343327,1.5
1762880046.3494232,1.5
1762880046.355853,1.47
1762880046.361953,1.49
1762880046.368261,1.5
1762880046.374569,1.52
1762880046.380886,1.54
1762880046.387101,1.49
1762880046.3933299,1.52
1762880046.3995788,1.51
1762880046.405749,1.46
1762880046.4119549,1.52
1762880046.4182558,1.52
1762880046.424426,1.5
1762880046.430936,1.48
1762880046.437004,1.49
1762880046.4433348,1.53
1762880046.449425,1.45
1762880046.455654,1.47
1762880046.462016,1.55
1762880046.468141,1.5
1762880046.4744341,1.51
1762880046.480737,1.51
1762880046.486933,1.48
1762880046.493267,1.52
1762880046.4994812,1.53
1762880046.50575,1.51
1762880046.512047,1.52
1762880046.5181508,1.48
1762880046.524369,1.5
1762880046.5308201,1.56
1762880046.536973,1.49
1762880046.543115,1.5
1762880046.549398,1.54
1762880046.555653,1.52
1762880046.561892,1.53
1762880046.568154,1.52
1762880046.574435,1.56
1762880046.5807738,1.64
1762880046.5869,1.62
1762880046.593149,1.63
1762880046.599396,1.66
1762880046.6056478,1.78
1762880046.6118982,1.8
1762880046.618143,1.66
1762880046.624474,1.62
1762880046.630749,1.7
1762880046.636933,1.57
