timestamp,ecg_value
1764741147.036543,1.6
1764741147.042887,1.63
1764741147.0490298,1.64
1764741147.0553632,1.64
1764741147.061528,1.6
1764741147.06778,1.56
1764741147.074212,1.65
1764741147.0803149,1.67
1764741147.0866182,1.65
1764741147.0928378,1.69
1764741147.0990238,1.64
1764741147.1053598,1.65
1764741147.1114938,1.7
1764741147.117764,1.66
1764741147.124131,1.62
1764741147.130367,1.67
1764741147.136545,1.67
1764741147.142804,1.65
1764741147.149029,1.66
1764741147.155308,1.66
1764741147.1614919,1.69
1764741147.167802,1.65
1764741147.1745741,1.65
1764741147.180298,1.68
1764741147.186537,1.67
1764741147.1928031,1.65
1764741147.198997,1.65
1764741147.205346,1.64
1764741147.211482,1.65
1764741147.217752,1.67
1764741147.2246132,1.67
1764741147.230268,1.62
1764741147.236593,1.66
1764741147.244556,1.69
1764741147.2613041,1.61
1764741147.2654998,1.65
1764741147.277882,1.68
1764741147.278023,1.62
1764741147.2781608,1.67
1764741147.284191,1.74
1764741147.299503,1.77
1764741147.301873,1.75
1764741147.3045871,1.76
1764741147.307488,1.9
1764741147.3114948,1.93
1764741147.3231528,1.81
1764741147.32418,1.82
1764741147.3303099,1.84
1764741147.33662,1.67
1764741147.342761,1.58
1764741147.3489301,1.63
1764741147.3553019,1.64
1764741147.361542,1.59
1764741147.367785,1.53
1764741147.374211,1.58
1764741147.380238,1.58
1764741147.386621,1.55
1764741147.392808,1.56
1764741147.3990788,1.57
1764741147.4052749,1.58
1764741147.411583,1.57
1764741147.417763,1.53
1764741147.424148,1.57
1764741147.430202,1.72
1764741147.4364438,2.05
1764741147.442813,2.71
1764741147.449023,3.04
1764741147.455313,2.78
1764741147.461729,1.93
1764741147.467735,1.07
1764741147.474114,1.32
1764741147.4802098,1.7
1764741147.4865122,1.6
1764741147.492762,1.54
1764741147.4989388,1.55
1764741147.50526,1.58
1764741147.511571,1.58
1764741147.51772,1.56
1764741147.5240839,1.6
1764741147.53025,1.61
1764741147.5364292,1.58
1764741147.542725,1.61
1764741147.548943,1.62
1764741147.555276,1.61
1764741147.56142,1.6
1764741147.5677388,1.62
1764741147.574174,1.65
1764741147.580168,1.61
1764741147.586436,1.59
1764741147.592646,1.64
1764741147.598899,1.67
1764741147.605264,1.7
1764741147.6114209,1.66
1764741147.617724,1.65
1764741147.624269,1.76
1764741147.630177,1.76
1764741147.636571,1.71
1764741147.642694,1.75
1764741147.648903,1.74
1764741147.655233,1.78
1764741147.661506,1.81
1764741147.667632,1.78
1764741147.674061,1.74
1764741147.680232,1.76
1764741147.686445,1.78
1764741147.692746,1.74
1764741147.698934,1.72
1764741147.7052422,1.73
1764741147.711526,1.7
1764741147.717827,1.65
1764741147.723951,1.63
1764741147.730237,1.57
1764741147.736382,1.62
1764741147.742641,1.65
1764741147.748924,1.6
1764741147.755221,1.56
1764741147.7613592,1.59
1764741147.7677581,1.6
1764741147.773976,1.59
1764741147.780247,1.59
1764741147.786411,1.65
1764741147.792664,1.67
1764741147.7988842,1.61
1764741147.8051672,1.61
1764741147.811386,1.62
1764741147.8176682,1.64
1764741147.824117,1.65
1764741147.830305,1.62
1764741147.8363872,1.65
1764741147.8427,1.66
1764741147.8490062,1.58
1764741147.855268,1.63
1764741147.8615072,1.67
1764741147.867711,1.62
1764741147.8740091,1.6
1764741147.880351,1.59
1764741147.886623,1.61
1764741147.892812,1.63
1764741147.898816,1.57
1764741147.9053571,1.57
1764741147.911424,1.61
1764741147.917769,1.6
1764741147.923871,1.61
1764741147.930272,1.6
1764741147.936625,1.59
1764741147.94266,1.6
1764741147.948843,1.67
1764741147.9553258,1.73
1764741147.961314,1.7
1764741147.9676101,1.71
1764741147.973931,1.86
1764741147.9802,1.87
1764741147.986426,1.78
1764741147.992675,1.75
1764741147.998965,1.78
1764741148.00525,1.66
1764741148.011412,1.54
1764741148.017638,1.53
1764741148.0240629,1.54
1764741148.030227,1.48
1764741148.0367239,1.47
1764741148.04262,1.52
1764741148.048893,1.51
1764741148.055159,1.48
1764741148.061395,1.47
1764741148.067677,1.48
1764741148.073889,1.46
1764741148.0801191,1.47
1764741148.0863428,1.53
1764741148.09259,1.52
1764741148.0988412,1.54
1764741148.10511,1.73
1764741148.1113348,2.31
1764741148.117593,2.94
1764741148.1238651,2.9
1764741148.130069,2.32
1764741148.136393,1.22
1764741148.142591,1.02
1764741148.1488209,1.58
1764741148.155552,1.65
1764741148.161354,1.44
1764741148.167657,1.43
1764741148.173985,1.51
1764741148.180108,1.5
1764741148.186286,1.51
1764741148.192561,1.52
1764741148.198858,1.48
1764741148.20512,1.51
1764741148.211406,1.54
1764741148.2175329,1.55
1764741148.2239518,1.55
1764741148.230113,1.53
1764741148.236359,1.55
1764741148.242581,1.56
1764741148.248964,1.54
1764741148.255125,1.58
1764741148.261441,1.62
1764741148.267582,1.59
1764741148.274081,1.6
1764741148.280203,1.61
1764741148.28668,1.63
1764741148.2926311,1.66
1764741148.2989361,1.63
1764741148.305182,1.67
1764741148.31135,1.71
1764741148.317677,1.7
1764741148.324191,1.73
1764741148.3300989,1.71
1764741148.336483,1.7
1764741148.342605,1.73
1764741148.348879,1.71
1764741148.355077,1.71
1764741148.3613791,1.66
1764741148.367703,1.65
1764741148.373973,1.67
1764741148.3801029,1.6
1764741148.386395,1.57
1764741148.392697,1.62
1764741148.398806,1.58
1764741148.405185,1.56
1764741148.411236,1.56
1764741148.417558,1.54
1764741148.423917,1.56
1764741148.430067,1.56
1764741148.43628,1.57
1764741148.4425101,1.56
1764741148.4488058,1.55
1764741148.4553442,1.59
1764741148.461332,1.58
1764741148.467523,1.56
1764741148.473781,1.62
1764741148.479973,1.62
1764741148.486327,1.6
1764741148.492527,1.6
1764741148.498739,1.58
1764741148.5056798,1.61
1764741148.5223522,1.61
1764741148.5225239,1.58
1764741148.543655,1.59
1764741148.546116,1.58
1764741148.5496802,1.58
1764741148.570414,1.59
1764741148.570602,1.56
1764741148.5706828,1.59
1764741148.570747,1.57
1764741148.570806,1.55
1764741148.5737238,1.59
1764741148.579995,1.59
1764741148.587119,1.6
1764741148.592693,1.59
1764741148.5988789,1.56
1764741148.605047,1.61
1764741148.61126,1.59
1764741148.617644,1.54
1764741148.623714,1.57
1764741148.629963,1.59
1764741148.636207,1.57
1764741148.6424792,1.58
1764741148.6487439,1.7
1764741148.655272,1.74
1764741148.6612082,1.69
1764741148.6675022,1.75
1764741148.6737258,1.85
1764741148.679997,1.8
1764741148.686285,1.76
1764741148.692412,1.79
1764741148.698765,1.7
1764741148.705017,1.57
1764741148.7112389,1.53
1764741148.717578,1.5
1764741148.724003,1.49
1764741148.730073,1.47
1764741148.736377,1.48
1764741148.742673,1.48
1764741148.748796,1.45
1764741148.75516,1.47
1764741148.761249,1.48
1764741148.767495,1.48
1764741148.773958,1.47
1764741148.779986,1.47
1764741148.786273,1.46
1764741148.7924638,1.48
1764741148.798743,1.57
1764741148.8055081,1.94
1764741148.811224,2.63
1764741148.817485,2.93
1764741148.824024,2.7
1764741148.830056,1.74
1764741148.836231,0.86
1764741148.8424041,1.21
1764741148.848757,1.6
1764741148.855028,1.48
1764741148.86129,1.37
1764741148.867588,1.44
1764741148.873846,1.47
1764741148.880067,1.41
1764741148.8863082,1.44
1764741148.892616,1.46
1764741148.8988008,1.46
1764741148.904981,1.47
1764741148.9112241,1.46
1764741148.9174569,1.46
1764741148.923819,1.5
1764741148.929982,1.48
1764741148.936231,1.51
1764741148.942612,1.53
1764741148.948699,1.51
1764741148.955115,1.53
1764741148.961408,1.55
1764741148.967509,1.56
1764741148.97393,1.58
1764741148.979987,1.57
1764741148.986351,1.58
1764741148.9925041,1.63
1764741148.9987059,1.64
1764741149.004918,1.66
1764741149.011293,1.66
1764741149.017437,1.68
1764741149.0237281,1.69
1764741149.029978,1.68
1764741149.0361931,1.68
1764741149.042393,1.69
1764741149.048618,1.69
1764741149.055488,1.68
1764741149.061198,1.64
1764741149.067334,1.63
1764741149.073678,1.63
1764741149.079934,1.58
1764741149.0861928,1.56
1764741149.092448,1.58
1764741149.098639,1.56
1764741149.104954,1.55
1764741149.111221,1.54
1764741149.1175091,1.52
1764741149.1240351,1.56
1764741149.130124,1.52
1764741149.13637,1.53
1764741149.1424901,1.55
1764741149.148747,1.54
1764741149.1553001,1.57
1764741149.161162,1.56
1764741149.1674612,1.58
1764741149.1737752,1.61
1764741149.180021,1.6
1764741149.186193,1.57
1764741149.192496,1.58
1764741149.198774,1.58
1764741149.205615,1.6
1764741149.2113101,1.59
1764741149.217566,1.61
1764741149.224405,1.6
1764741149.2300448,1.55
1764741149.236203,1.6
1764741149.242681,1.63
1764741149.2486799,1.58
1764741149.2557068,1.58
1764741149.261227,1.57
1764741149.2675169,1.52
1764741149.2740202,1.56
1764741149.279875,1.59
1764741149.2861068,1.56
1764741149.2924218,1.52
1764741149.2985332,1.52
1764741149.305294,1.58
1764741149.31115,1.57
1764741149.317308,1.56
1764741149.3237278,1.57
1764741149.329857,1.55
1764741149.336121,1.54
1764741149.342411,1.55
1764741149.3486872,1.55
1764741149.355253,1.56
1764741149.3611898,1.54
1764741149.3674428,1.52
1764741149.373856,1.56
1764741149.379905,1.55
1764741149.3860748,1.55
1764741149.3923252,1.6
1764741149.398614,1.66
1764741149.404947,1.72
1764741149.4110348,1.66
1764741149.4173481,1.7
1764741149.423614,1.85
1764741149.4298182,1.82
1764741149.43623,1.74
1764741149.4423811,1.76
1764741149.448561,1.75
1764741149.455157,1.61
1764741149.461046,1.52
1764741149.467354,1.51
1764741149.473572,1.5
1764741149.479806,1.49
1764741149.486083,1.5
1764741149.492385,1.52
1764741149.498593,1.5
1764741149.5052621,1.52
1764741149.511141,1.53
1764741149.517489,1.5
1764741149.523678,1.54
1764741149.5299132,1.52
1764741149.536184,1.49
1764741149.542361,1.52
1764741149.548585,1.67
1764741149.555625,2.06
1764741149.5610912,2.67
1764741149.567422,2.92
1764741149.573645,2.68
1764741149.5798059,1.69
1764741149.586068,0.92
1764741149.592353,1.3
1764741149.598481,1.65
1764741149.605075,1.53
1764741149.611132,1.39
1764741149.617312,1.43
1764741149.623662,1.54
1764741149.629951,1.51
1764741149.636082,1.45
1764741149.6423302,1.47
1764741149.6486201,1.5
1764741149.655634,1.53
1764741149.661095,1.53
1764741149.667277,1.53
1764741149.673749,1.53
1764741149.679868,1.51
1764741149.686194,1.56
1764741149.692321,1.57
1764741149.698548,1.54
1764741149.705069,1.6
1764741149.711091,1.61
1764741149.717414,1.58
1764741149.7239082,1.57
1764741149.72988,1.61
1764741149.736063,1.67
1764741149.7423308,1.65
1764741149.7487,1.64
1764741149.7560189,1.7
1764741149.761361,1.7
1764741149.767406,1.69
1764741149.80462,1.7
1764741149.804804,1.71
1764741149.804975,1.72
1764741149.8051322,1.71
1764741149.80883,1.72
1764741149.8105159,1.68
1764741149.8364532,1.65
1764741149.836986,1.67
1764741149.837124,1.68
1764741149.837271,1.6
1764741149.837474,1.58
1764741149.842209,1.57
1764741149.8486981,1.54
1764741149.854961,1.52
1764741149.861066,1.51
1764741149.8671749,1.51
1764741149.873566,1.5
1764741149.879755,1.46
1764741149.8859909,1.41
1764741149.892179,1.37
1764741149.8984919,1.35
1764741149.905016,1.28
1764741149.911038,1.22
1764741149.9171681,1.24
1764741149.923491,1.26
1764741149.9297779,1.18
1764741149.935989,1.15
1764741149.942228,1.15
1764741149.948525,1.08
1764741149.9552991,0.99
1764741149.9609878,0.96
1764741149.9673338,0.98
1764741149.973542,0.97
1764741149.979718,0.89
1764741149.985965,0.84
1764741149.992307,0.85
1764741149.998395,0.82
1764741150.004919,0.81
1764741150.010981,0.78
1764741150.0173252,0.78
1764741150.02337,0.8
1764741150.02971,0.74
1764741150.0359511,0.76
1764741150.04225,0.75
1764741150.048361,0.73
1764741150.054762,0.76
1764741150.061085,0.76
1764741150.067195,0.74
1764741150.0735319,0.75
1764741150.079795,0.78
1764741150.085991,0.79
1764741150.0922549,0.8
1764741150.098374,0.79
1764741150.104846,0.81
1764741150.110952,0.81
1764741150.117368,0.8
1764741150.123616,0.83
1764741150.129877,0.82
1764741150.136105,0.88
1764741150.1422348,0.92
1764741150.1484559,0.89
1764741150.154717,1.01
1764741150.161013,1.06
1764741150.167274,1.04
1764741150.1736588,1.03
1764741150.179897,1.0
1764741150.185998,0.97
1764741150.1922948,0.85
1764741150.198556,0.77
1764741150.204732,0.84
1764741150.21104,0.83
1764741150.21728,0.83
1764741150.223507,0.86
1764741150.229723,0.86
1764741150.236004,0.86
1764741150.242348,0.86
1764741150.248508,0.89
1764741150.25486,0.94
1764741150.2609138,0.91
1764741150.2672288,0.92
1764741150.273497,0.92
1764741150.2797608,0.96
1764741150.286029,1.12
1764741150.2922492,1.59
1764741150.298471,2.32
1764741150.305054,2.53
1764741150.3109498,2.11
1764741150.317248,1.16
1764741150.3235378,0.59
1764741150.3298922,0.93
1764741150.336006,1.22
1764741150.3422809,1.12
1764741150.348541,1.04
1764741150.3547032,1.1
1764741150.3610308,1.16
1764741150.36734,1.23
1764741150.373686,1.23
1764741150.3797388,1.22
1764741150.386045,1.27
1764741150.392235,1.29
1764741150.398561,1.27
1764741150.404758,1.35
1764741150.411076,1.38
1764741150.417284,1.36
1764741150.423483,1.37
1764741150.429663,1.38
1764741150.436095,1.46
1764741150.442219,1.45
1764741150.448446,1.47
1764741150.4552362,1.53
1764741150.460876,1.51
1764741150.467148,1.5
1764741150.473435,1.57
1764741150.479815,1.62
1764741150.485961,1.63
1764741150.492148,1.61
1764741150.4984162,1.67
1764741150.504647,1.73
1764741150.5108879,1.7
1764741150.51705,1.71
1764741150.5233762,1.72
1764741150.529581,1.74
1764741150.535915,1.78
1764741150.542167,1.74
1764741150.548264,1.68
1764741150.55468,1.76
1764741150.56091,1.72
1764741150.567057,1.68
1764741150.573372,1.7
1764741150.579545,1.69
1764741150.585901,1.67
1764741150.592214,1.66
1764741150.598443,1.65
1764741150.604612,1.67
1764741150.610841,1.65
1764741150.617169,1.7
1764741150.6233358,1.7
1764741150.629597,1.69
1764741150.63614,1.74
1764741150.6420832,1.75
1764741150.648269,1.76
1764741150.654647,1.78
1764741150.6609018,1.75
1764741150.667111,1.77
1764741150.6732721,1.79
1764741150.679595,1.78
1764741150.686131,1.81
1764741150.6922681,1.81
1764741150.698286,1.77
1764741150.704688,1.8
1764741150.7109041,1.8
1764741150.717139,1.83
1764741150.723325,1.85
1764741150.729616,1.79
1764741150.736277,1.82
1764741150.742028,1.84
1764741150.748249,1.8
1764741150.754654,1.81
1764741150.7610419,1.84
1764741150.767159,1.85
1764741150.77349,1.83
1764741150.779659,1.79
1764741150.785801,1.83
1764741150.792158,1.84
1764741150.798302,1.83
1764741150.804856,1.87
1764741150.810878,1.85
1764741150.817199,1.83
1764741150.8232698,1.85
1764741150.829555,1.85
1764741150.836023,1.87
1764741150.84206,1.85
1764741150.8482492,1.86
1764741150.8546822,1.92
1764741150.860825,1.94
1764741150.867095,1.96
1764741150.8733282,1.96
1764741150.879508,2.07
1764741150.885857,2.17
1764741150.8920882,2.1
1764741150.8982232,1.99
1764741150.904556,2.07
1764741150.91079,2.03
1764741150.9171772,1.85
1764741150.923279,1.79
1764741150.929548,1.82
1764741150.93588,1.83
1764741150.9420621,1.78
1764741150.9483678,1.75
1764741150.9547222,1.8
1764741150.960765,1.81
1764741150.966999,1.79
1764741150.973373,1.81
1764741150.979511,1.79
1764741150.986193,1.8
1764741150.992085,1.82
1764741150.998235,1.81
1764741151.0046139,1.86
1764741151.0108428,2.0
1764741151.0171342,2.5
1764741151.023502,3.15
1764741151.0296052,3.14
1764741151.035879,2.96
1764741151.043312,1.78
1764741151.053674,1.13
1764741151.077263,1.79
1764741151.095392,2.02
1764741151.10933,1.76
1764741151.109673,1.71
1764741151.1098812,1.78
1764741151.110006,1.82
1764741151.110064,1.77
1764741151.110155,1.77
1764741151.110253,1.81
1764741151.110683,1.79
1764741151.1198149,1.78
1764741151.123272,1.81
1764741151.129599,1.79
1764741151.135871,1.8
1764741151.141998,1.81
1764741151.1482,1.8
1764741151.154469,1.86
1764741151.160743,1.87
1764741151.166941,1.86
1764741151.173156,1.85
1764741151.1794748,1.86
1764741151.1856902,1.89
1764741151.191998,1.89
1764741151.198171,1.9
1764741151.20463,1.93
1764741151.2107468,1.88
1764741151.2169962,1.94
1764741151.223166,1.99
1764741151.229453,1.95
1764741151.2362099,1.96
1764741151.241931,1.97
1764741151.2481952,1.96
1764741151.254452,1.95
1764741151.260729,1.93
1764741151.266975,1.94
1764741151.273142,1.9
1764741151.279416,1.86
1764741151.2860532,1.91
1764741151.2919219,1.85
1764741151.29816,1.77
1764741151.304449,1.79
1764741151.310737,1.75
1764741151.316993,1.77
1764741151.323148,1.81
1764741151.329397,1.78
1764741151.3365068,1.74
1764741151.341931,1.75
1764741151.34818,1.76
1764741151.354594,1.76
1764741151.360726,1.74
1764741151.366988,1.8
1764741151.373205,1.8
1764741151.379445,1.75
1764741151.385851,1.79
1764741151.3920152,1.77
1764741151.398176,1.74
1764741151.404481,1.76
1764741151.410826,1.75
1764741151.416948,1.74
1764741151.42323,1.78
1764741151.429512,1.78
1764741151.436469,1.74
1764741151.44192,1.71
1764741151.448151,1.75
1764741151.454433,1.78
1764741151.460798,1.71
1764741151.466971,1.71
1764741151.473212,1.73
1764741151.479412,1.71
1764741151.4859788,1.7
1764741151.491872,1.7
1764741151.498116,1.73
1764741151.504593,1.72
1764741151.510666,1.69
1764741151.516962,1.7
1764741151.523196,1.69
1764741151.529479,1.7
1764741151.535713,1.7
1764741151.54222,1.68
1764741151.5482,1.71
1764741151.5546932,1.7
1764741151.560822,1.66
1764741151.566918,1.7
1764741151.5733252,1.7
1764741151.5794392,1.68
1764741151.585696,1.7
1764741151.592035,1.7
1764741151.598253,1.71
1764741151.604633,1.78
1764741151.6106398,1.79
1764741151.6169071,1.79
1764741151.623177,1.87
1764741151.629419,1.91
1764741151.635746,1.95
1764741151.6420228,1.88
1764741151.6481721,1.84
1764741151.654486,1.8
1764741151.6606588,1.62
1764741151.667117,1.63
1764741151.673301,1.63
1764741151.679455,1.57
1764741151.685735,1.58
1764741151.692071,1.55
1764741151.698224,1.53
1764741151.7045739,1.61
1764741151.7108212,1.64
1764741151.716959,1.58
1764741151.7233229,1.55
1764741151.729484,1.58
1764741151.736335,1.62
1764741151.7420008,1.55
1764741151.7481909,1.6
1764741151.7545202,1.76
1764741151.76073,2.11
1764741151.766964,2.78
1764741151.773268,3.06
1764741151.779395,2.78
1764741151.785861,1.78
1764741151.7918751,0.94
1764741151.798107,1.39
1764741151.804456,1.75
1764741151.810625,1.55
1764741151.8169,1.5
1764741151.823141,1.57
1764741151.829334,1.56
1764741151.835864,1.55
1764741151.841996,1.54
1764741151.848074,1.55
1764741151.854372,1.58
1764741151.8606029,1.56
1764741151.866822,1.57
1764741151.873143,1.57
1764741151.8793018,1.56
1764741151.885769,1.59
1764741151.8918688,1.59
1764741151.898061,1.61
1764741151.904338,1.62
1764741151.910645,1.58
1764741151.9169369,1.62
1764741151.923249,1.65
1764741151.92945,1.63
1764741151.936234,1.65
1764741151.9418619,1.68
1764741151.948128,1.67
1764741151.954402,1.67
1764741151.960757,1.71
1764741151.9669828,1.74
1764741151.973123,1.74
1764741151.979342,1.71
1764741151.9856472,1.73
1764741151.991831,1.73
1764741151.9980109,1.74
1764741152.004343,1.75
1764741152.010582,1.69
1764741152.016926,1.67
1764741152.0230348,1.66
1764741152.029324,1.62
1764741152.035626,1.6
1764741152.0417721,1.6
1764741152.04803,1.59
1764741152.054346,1.56
1764741152.060621,1.53
1764741152.06691,1.54
1764741152.073053,1.53
1764741152.07923,1.53
1764741152.085794,1.54
1764741152.09186,1.53
1764741152.0981052,1.55
1764741152.1044018,1.57
1764741152.110519,1.53
1764741152.116863,1.53
1764741152.12326,1.55
1764741152.129478,1.59
1764741152.136139,1.58
1764741152.142035,1.54
1764741152.148175,1.58
1764741152.1544409,1.6
1764741152.16066,1.54
1764741152.166844,1.55
1764741152.173155,1.57
1764741152.1793122,1.54
1764741152.1857522,1.56
1764741152.191818,1.54
1764741152.198045,1.56
1764741152.204315,1.6
1764741152.210499,1.55
1764741152.216769,1.56
1764741152.2230022,1.52
1764741152.229291,1.54
1764741152.235567,1.61
1764741152.241761,1.55
1764741152.2480562,1.52
1764741152.254337,1.56
1764741152.260573,1.53
1764741152.266856,1.53
1764741152.2730508,1.51
1764741152.279267,1.53
1764741152.285574,1.56
1764741152.2917461,1.54
1764741152.298093,1.53
1764741152.304357,1.52
1764741152.310535,1.52
1764741152.316972,1.54
1764741152.322968,1.54
1764741152.329281,1.54
1764741152.335571,1.55
1764741152.341748,1.5
1764741152.348078,1.54
1764741152.354242,1.64
1764741152.3605518,1.65
1764741152.366796,1.62
1764741152.373035,1.64
1764741152.379471,1.77
1764741152.385547,1.81
1764741152.396877,1.72
1764741152.409037,1.68
1764741152.4178612,1.69
1764741152.418077,1.58
1764741152.4430609,1.48
1764741152.44319,1.47
1764741152.4433112,1.42
1764741152.443427,1.44
1764741152.443551,1.43
1764741152.451335,1.42
1764741152.455553,1.43
1764741152.4605608,1.43
1764741152.467849,1.44
1764741152.472927,1.42
1764741152.4792929,1.43
1764741152.485705,1.43
1764741152.491775,1.42
1764741152.497935,1.43
1764741152.504245,1.51
1764741152.5105238,1.7
1764741152.516664,2.36
1764741152.522977,2.9
1764741152.529191,2.75
1764741152.5356119,2.19
1764741152.541709,1.1
1764741152.547907,0.95
1764741152.554293,1.49
1764741152.5605278,1.52
1764741152.5666811,1.37
1764741152.573173,1.41
1764741152.5792441,1.46
1764741152.585568,1.44
1764741152.591776,1.41
1764741152.598059,1.44
1764741152.604233,1.48
1764741152.6106381,1.46
1764741152.616705,1.46
1764741152.623012,1.49
1764741152.629334,1.5
1764741152.636008,1.52
1764741152.641877,1.49
1764741152.648013,1.53
1764741152.654273,1.56
1764741152.6604779,1.52
1764741152.666781,1.55
1764741152.673028,1.58
1764741152.679369,1.54
1764741152.6857758,1.57
1764741152.691817,1.59
1764741152.6980312,1.59
1764741152.704276,1.61
1764741152.710577,1.64
1764741152.716749,1.68
1764741152.72306,1.65
1764741152.729284,1.61
1764741152.735876,1.69
1764741152.741771,1.7
1764741152.747946,1.67
1764741152.7542531,1.66
1764741152.760391,1.66
1764741152.7666829,1.68
1764741152.772928,1.65
1764741152.779177,1.59
1764741152.785484,1.61
1764741152.791689,1.55
1764741152.797874,1.52
1764741152.8041291,1.55
1764741152.8104918,1.55
1764741152.8166971,1.52
1764741152.822892,1.47
1764741152.8292239,1.5
1764741152.835736,1.52
1764741152.841716,1.52
1764741152.847914,1.53
1764741152.854122,1.53
1764741152.8604732,1.55
1764741152.866719,1.56
1764741152.872891,1.56
1764741152.8793259,1.56
1764741152.885709,1.59
1764741152.891668,1.57
1764741152.897863,1.57
1764741152.9041762,1.58
1764741152.910325,1.58
1764741152.9167192,1.61
1764741152.923079,1.59
1764741152.929145,1.58
1764741152.935528,1.6
1764741152.941747,1.62
1764741152.9481568,1.62
1764741152.954261,1.6
1764741152.960342,1.56
1764741152.9667351,1.57
1764741152.973026,1.6
1764741152.979229,1.59
1764741152.985725,1.56
1764741152.991765,1.55
1764741152.9980118,1.6
1764741153.004241,1.59
1764741153.010435,1.55
1764741153.0168161,1.59
1764741153.0229309,1.58
1764741153.029122,1.57
1764741153.035481,1.59
1764741153.0416389,1.56
1764741153.047905,1.6
1764741153.054084,1.61
1764741153.0603142,1.58
1764741153.0665479,1.59
1764741153.072834,1.56
1764741153.079034,1.56
1764741153.0853639,1.64
1764741153.0915542,1.65
1764741153.097814,1.69
1764741153.104008,1.7
1764741153.1103098,1.71
1764741153.11654,1.83
1764741153.122875,1.89
1764741153.1290932,1.83
1764741153.135435,1.78
1764741153.141613,1.74
1764741153.147785,1.69
1764741153.154033,1.62
1764741153.1603022,1.57
1764741153.166667,1.54
1764741153.172974,1.52
1764741153.179292,1.52
1764741153.185475,1.54
1764741153.191665,1.51
1764741153.1978319,1.51
1764741153.204281,1.53
1764741153.210382,1.54
1764741153.216753,1.55
1764741153.222879,1.52
1764741153.229089,1.5
1764741153.235465,1.51
1764741153.241602,1.58
1764741153.247825,1.77
1764741153.254116,2.24
1764741153.260334,2.87
1764741153.266641,2.96
1764741153.2728431,2.54
1764741153.279114,1.48
1764741153.285613,1.02
1764741153.291638,1.48
1764741153.297987,1.66
1764741153.304118,1.51
1764741153.3103192,1.45
1764741153.31668,1.55
1764741153.322796,1.53
1764741153.3291252,1.49
1764741153.33537,1.53
1764741153.341544,1.53
1764741153.3477561,1.52
1764741153.353996,1.55
1764741153.3603032,1.57
1764741153.36687,1.55
1764741153.3727539,1.56
1764741153.3790631,1.6
1764741153.385354,1.6
1764741153.391551,1.57
1764741153.397797,1.61
1764741153.404084,1.62
1764741153.4102972,1.6
1764741153.416974,1.66
1764741153.422849,1.65
1764741153.429088,1.65
1764741153.435284,1.67
1764741153.441622,1.63
1764741153.447743,1.7
1764741153.4540238,1.77
1764741153.4602392,1.74
1764741153.466623,1.74
1764741153.472815,1.76
1764741153.47909,1.77
1764741153.48527,1.76
1764741153.491466,1.74
1764741153.4979148,1.78
1764741153.504127,1.72
1764741153.5102952,1.64
1764741153.516639,1.7
1764741153.5228622,1.7
1764741153.529066,1.61
1764741153.5354931,1.61
1764741153.5416121,1.58
1764741153.54792,1.58
1764741153.554122,1.61
1764741153.560252,1.58
1764741153.566647,1.58
1764741153.572812,1.52
1764741153.5791528,1.54
1764741153.585304,1.64
1764741153.5914938,1.57
1764741153.597762,1.52
1764741153.603957,1.55
1764741153.610399,1.54
1764741153.6166568,1.58
1764741153.6227689,1.58
1764741153.629015,1.57
1764741153.635255,1.61
1764741153.641491,1.6
1764741153.647685,1.59
1764741153.653975,1.62
1764741153.660256,1.6
1764741153.666798,1.59
1764741153.6727629,1.58
1764741153.678986,1.59
1764741153.68523,1.57
1764741153.6914518,1.55
1764741153.697757,1.6
1764741153.703918,1.49
1764741153.710305,1.41
1764741153.716866,1.48
1764741153.738838,1.48
1764741153.738924,1.43
1764741153.739001,1.45
1764741153.749953,1.43
1764741153.776586,1.43
1764741153.7790039,1.44
1764741153.7826612,1.47
1764741153.783015,1.5
1764741153.783157,1.45
1764741153.783247,1.42
1764741153.7851908,1.46
1764741153.791467,1.47
1764741153.797703,1.52
1764741153.8040981,1.57
1764741153.8103008,1.58
1764741153.8167622,1.59
1764741153.822707,1.64
1764741153.8289542,1.73
1764741153.835268,1.79
1764741153.841446,1.68
1764741153.847661,1.68
1764741153.853962,1.69
1764741153.8602428,1.51
1764741153.8666759,1.47
1764741153.872747,1.49
1764741153.878936,1.47
1764741153.885418,1.46
1764741153.891422,1.44
1764741153.897652,1.47
1764741153.90395,1.44
1764741153.910261,1.43
1764741153.916768,1.51
1764741153.922658,1.48
1764741153.9289181,1.45
1764741153.9352782,1.5
1764741153.9415061,1.47
1764741153.9476411,1.49
1764741153.9539268,1.61
1764741153.9601338,1.84
1764741153.967007,2.45
1764741153.972853,2.95
1764741153.978952,2.82
1764741153.985194,2.11
1764741153.991411,1.09
1764741153.997656,1.13
1764741154.0039659,1.61
1764741154.0101519,1.56
1764741154.01683,1.44
1764741154.022655,1.46
1764741154.028957,1.49
1764741154.0352068,1.52
1764741154.0414028,1.48
1764741154.0477362,1.53
1764741154.053903,1.55
1764741154.0602171,1.49
1764741154.066875,1.53
1764741154.0727198,1.56
1764741154.078927,1.56
1764741154.085137,1.55
1764741154.091477,1.55
1764741154.097622,1.58
1764741154.10383,1.59
1764741154.110123,1.58
1764741154.116678,1.63
1764741154.122607,1.61
1764741154.128868,1.61
1764741154.135194,1.69
1764741154.141366,1.66
1764741154.147747,1.65
1764741154.1538901,1.69
1764741154.160167,1.7
1764741154.1665668,1.73
1764741154.17291,1.73
1764741154.178889,1.75
1764741154.1852312,1.78
1764741154.1913788,1.78
1764741154.197599,1.79
1764741154.203776,1.75
1764741154.2101681,1.69
1764741154.216854,1.75
1764741154.222628,1.76
1764741154.229008,1.69
1764741154.235125,1.66
1764741154.2413802,1.62
1764741154.2476249,1.64
1764741154.2538722,1.64
1764741154.260153,1.59
1764741154.266643,1.6
1764741154.272643,1.59
1764741154.278925,1.59
1764741154.285213,1.61
1764741154.291359,1.55
1764741154.297647,1.6
1764741154.303859,1.62
1764741154.3102121,1.59
1764741154.31644,1.62
1764741154.322728,1.61
1764741154.328927,1.6
1764741154.335468,1.67
1764741154.341454,1.67
1764741154.34761,1.67
1764741154.353869,1.61
1764741154.360196,1.63
1764741154.366512,1.7
1764741154.3726668,1.66
1764741154.3788512,1.62
1764741154.3851259,1.67
1764741154.391307,1.68
1764741154.3975449,1.66
1764741154.403882,1.64
1764741154.4100611,1.65
1764741154.4165308,1.68
1764741154.4226189,1.62
1764741154.428818,1.62
1764741154.4351182,1.68
1764741154.441362,1.65
1764741154.447614,1.65
1764741154.453912,1.64
1764741154.4601521,1.61
1764741154.466311,1.64
1764741154.4725509,1.66
1764741154.4787898,1.64
1764741154.485112,1.63
1764741154.4912739,1.59
1764741154.4976058,1.64
1764741154.503813,1.66
1764741154.510068,1.64
1764741154.516484,1.65
1764741154.522772,1.62
1764741154.528969,1.72
1764741154.535171,1.8
1764741154.541363,1.73
1764741154.5475998,1.74
1764741154.553741,1.87
1764741154.560021,1.87
1764741154.566357,1.81
1764741154.5725682,1.76
1764741154.5787678,1.8
1764741154.5849862,1.71
1764741154.591309,1.53
1764741154.597545,1.57
1764741154.60378,1.61
1764741154.610073,1.51
1764741154.616478,1.52
1764741154.622708,1.56
1764741154.628813,1.55
1764741154.635129,1.56
1764741154.641294,1.52
1764741154.6476648,1.56
1764741154.653764,1.6
1764741154.660046,1.58
1764741154.6662972,1.59
1764741154.672562,1.52
1764741154.678779,1.58
1764741154.685117,1.79
1764741154.691284,2.24
1764741154.6975849,2.91
1764741154.703753,3.04
1764741154.710109,2.6
1764741154.71649,1.51
1764741154.722614,1.0
1764741154.728822,1.52
1764741154.7350242,1.72
1764741154.741301,1.52
1764741154.74753,1.52
1764741154.7538939,1.59
1764741154.760155,1.57
1764741154.766568,1.56
1764741154.772695,1.55
1764741154.778919,1.58
1764741154.7851121,1.63
1764741154.791229,1.6
1764741154.797537,1.59
1764741154.8038,1.61
1764741154.8100019,1.63
1764741154.8163042,1.65
1764741154.8225029,1.63
1764741154.82895,1.63
1764741154.835171,1.65
1764741154.841347,1.66
1764741154.847498,1.67
1764741154.853751,1.65
1764741154.860011,1.67
1764741154.866241,1.71
1764741154.8725739,1.71
1764741154.878825,1.73
1764741154.885022,1.75
1764741154.8912342,1.75
1764741154.8974762,1.8
1764741154.903693,1.8
1764741154.910063,1.79
1764741154.9162502,1.82
1764741154.9227579,1.78
1764741154.9287748,1.78
1764741154.93502,1.82
1764741154.9412851,1.75
1764741154.947572,1.74
1764741154.95369,1.73
1764741154.960007,1.65
1764741154.9665,1.65
1764741154.97246,1.63
1764741154.978827,1.64
1764741154.985049,1.63
1764741154.9912908,1.62
1764741154.997544,1.62
1764741155.003813,1.6
1764741155.010018,1.58
1764741155.01662,1.59
1764741155.0226,1.58
1764741155.0288792,1.59
1764741155.035166,1.63
1764741155.041176,1.59
1764741155.047482,1.61
1764741155.05391,1.65
1764741155.06012,1.63
1764741155.06647,1.65
1764741155.072468,1.61
1764741155.078779,1.63
1764741155.085118,1.64
1764741155.091187,1.62
1764741155.097522,1.68
1764741155.1037,1.64
1764741155.129351,1.62
1764741155.1361768,1.65
1764741155.136402,1.62
1764741155.139717,1.63
1764741155.143811,1.65
1764741155.144429,1.59
1764741155.147472,1.6
1764741155.153802,1.62
1764741155.159998,1.61
1764741155.166295,1.62
1764741155.1724532,1.58
1764741155.17872,1.56
1764741155.1849668,1.62
1764741155.19121,1.6
1764741155.197483,1.61
1764741155.2038138,1.58
1764741155.2100952,1.57
1764741155.21629,1.67
1764741155.222452,1.62
1764741155.228778,1.55
1764741155.234893,1.62
1764741155.241166,1.63
1764741155.247455,1.6
1764741155.25383,1.57
1764741155.259872,1.59
1764741155.266291,1.63
1764741155.272498,1.59
1764741155.2787268,1.59
1764741155.2849228,1.62
1764741155.291305,1.58
1764741155.297854,1.58
1764741155.303811,1.6
1764741155.309951,1.69
1764741155.316203,1.74
1764741155.322551,1.67
1764741155.328685,1.72
1764741155.3351538,1.87
1764741155.341232,1.86
1764741155.347446,1.79
1764741155.353693,1.74
1764741155.3599622,1.71
1764741155.36622,1.68
1764741155.372438,1.58
1764741155.378762,1.53
1764741155.384919,1.52
1764741155.391107,1.51
1764741155.3973818,1.53
1764741155.4036748,1.52
1764741155.40989,1.49
1764741155.416138,1.51
1764741155.422467,1.54
1764741155.428701,1.56
1764741155.435019,1.53
1764741155.441128,1.51
1764741155.4477482,1.51
1764741155.453634,1.52
1764741155.4599319,1.6
1764741155.466177,1.79
1764741155.472445,2.33
1764741155.478691,2.99
1764741155.484999,2.96
1764741155.491185,2.31
1764741155.4973922,1.23
1764741155.503603,1.05
1764741155.509899,1.54
1764741155.516147,1.64
1764741155.522444,1.44
1764741155.528785,1.44
1764741155.53489,1.55
1764741155.5410519,1.5
1764741155.5474381,1.48
1764741155.553752,1.52
1764741155.559911,1.53
1764741155.566151,1.52
1764741155.5723362,1.49
1764741155.578599,1.53
1764741155.5848792,1.55
1764741155.590979,1.51
1764741155.5973198,1.54
1764741155.6035619,1.59
1764741155.610048,1.56
1764741155.616245,1.53
1764741155.6223302,1.56
1764741155.628701,1.62
1764741155.63485,1.59
1764741155.641151,1.55
1764741155.6474082,1.6
1764741155.6535838,1.65
1764741155.659862,1.67
1764741155.666183,1.72
1764741155.672315,1.68
1764741155.6786492,1.69
1764741155.684839,1.74
1764741155.691007,1.73
1764741155.6972759,1.72
1764741155.703545,1.72
1764741155.7099352,1.72
1764741155.7162309,1.72
1764741155.7222972,1.68
1764741155.728532,1.66
1764741155.734825,1.66
1764741155.741067,1.63
1764741155.747423,1.61
1764741155.753519,1.56
1764741155.7597709,1.55
1764741155.76609,1.56
1764741155.772341,1.54
1764741155.778523,1.58
1764741155.784822,1.57
1764741155.790974,1.53
1764741155.797309,1.54
1764741155.8035781,1.55
1764741155.809862,1.57
1764741155.8161962,1.58
1764741155.8224058,1.58
1764741155.828628,1.59
1764741155.8349388,1.59
1764741155.841035,1.6
1764741155.847311,1.64
1764741155.853642,1.62
1764741155.859881,1.61
1764741155.8662322,1.65
1764741155.872284,1.61
1764741155.8786402,1.63
1764741155.8847659,1.63
1764741155.890957,1.63
1764741155.8974578,1.63
1764741155.903575,1.61
1764741155.90978,1.63
1764741155.91599,1.62
1764741155.9222322,1.6
1764741155.928524,1.64
1764741155.9347599,1.64
1764741155.941154,1.57
1764741155.9475121,1.57
1764741155.953514,1.6
1764741155.9597912,1.61
1764741155.966069,1.61
1764741155.9722528,1.56
1764741155.9785368,1.57
1764741155.98476,1.6
1764741155.990954,1.6
1764741155.9975119,1.62
1764741156.003805,1.6
1764741156.0098088,1.59
1764741156.01632,1.6
1764741156.022335,1.56
1764741156.028573,1.59
1764741156.034831,1.6
1764741156.041031,1.57
1764741156.047303,1.61
1764741156.053565,1.6
1764741156.059734,1.59
1764741156.0659158,1.63
1764741156.072235,1.6
1764741156.078541,1.6
1764741156.0848799,1.57
1764741156.091006,1.57
1764741156.097566,1.63
1764741156.103466,1.63
1764741156.109828,1.69
1764741156.115983,1.73
1764741156.122281,1.71
1764741156.1287,1.84
1764741156.134759,1.85
1764741156.141099,1.74
1764741156.147489,1.71
1764741156.153536,1.72
1764741156.159842,1.64
1764741156.165984,1.56
1764741156.172204,1.52
1764741156.178663,1.55
1764741156.184701,1.51
1764741156.1909602,1.48
1764741156.198048,1.51
1764741156.2035542,1.51
1764741156.209729,1.52
1764741156.216011,1.53
1764741156.222187,1.49
1764741156.2287118,1.52
1764741156.234776,1.53
1764741156.241058,1.48
1764741156.2473412,1.48
1764741156.253546,1.58
1764741156.259645,1.79
1764741156.266138,2.33
1764741156.272346,2.94
1764741156.27851,2.95
1764741156.284679,2.4
1764741156.2910469,1.24
1764741156.297374,1.03
1764741156.303592,1.55
1764741156.30981,1.62
1764741156.315974,1.49
1764741156.322332,1.46
1764741156.3285792,1.52
1764741156.334785,1.53
1764741156.3410041,1.52
1764741156.347278,1.52
1764741156.353705,1.49
1764741156.359823,1.54
1764741156.365958,1.61
1764741156.372233,1.55
1764741156.378517,1.53
1764741156.384717,1.54
1764741156.391018,1.55
1764741156.39728,1.6
1764741156.403538,1.55
1764741156.409835,1.58
1764741156.415905,1.61
1764741156.422217,1.58
1764741156.42853,1.63
1764741156.434905,1.65
1764741156.4408572,1.61
1764741156.4475148,1.66
1764741156.453506,1.72
1764741156.459685,1.73
1764741156.4658718,1.75
1764741156.4722502,1.75
1764741156.478577,1.75
1764741156.4846861,1.75
1764741156.490976,1.77
1764741156.497566,1.82
1764741156.50344,1.79
1764741156.509794,1.77
1764741156.516007,1.75
1764741156.5222259,1.72
1764741156.528527,1.72
1764741156.5347142,1.69
1764741156.541004,1.63
1764741156.5472379,1.63
1764741156.553504,1.64
1764741156.559702,1.61
1764741156.5660522,1.61
1764741156.572108,1.62
1764741156.578447,1.63
1764741156.5876338,1.6
1764741156.602156,1.58
1764741156.608458,1.61
1764741156.6086059,1.59
1764741156.628732,1.59
1764741156.643096,1.62
1764741156.643191,1.6
1764741156.6432672,1.62
1764741156.6435552,1.61
1764741156.643637,1.6
1764741156.647253,1.64
1764741156.660243,1.66
1764741156.6644669,1.66
1764741156.665934,1.63
1764741156.672101,1.65
1764741156.6784298,1.68
1764741156.684674,1.64
1764741156.690866,1.66
1764741156.697428,1.7
1764741156.703351,1.65
1764741156.709682,1.64
1764741156.7158241,1.68
1764741156.722053,1.66
1764741156.7283661,1.65
1764741156.7345521,1.63
1764741156.740848,1.63
1764741156.747353,1.68
1764741156.753321,1.68
1764741156.759706,1.65
1764741156.765837,1.64
1764741156.772117,1.59
1764741156.7784152,1.68
1764741156.784618,1.71
1764741156.790884,1.62
1764741156.797237,1.65
1764741156.8033679,1.69
1764741156.810034,1.65
1764741156.815947,1.64
1764741156.8220658,1.62
1764741156.8283489,1.67
1764741156.834603,1.66
1764741156.8408089,1.65
1764741156.847336,1.68
1764741156.853365,1.63
1764741156.859803,1.65
1764741156.865831,1.73
1764741156.872035,1.65
1764741156.878368,1.62
1764741156.8846452,1.69
1764741156.890893,1.7
1764741156.8972402,1.69
1764741156.903599,1.68
1764741156.909704,1.73
1764741156.915883,1.78
1764741156.922227,1.75
1764741156.9284108,1.81
1764741156.9346838,1.89
1764741156.9408991,1.9
1764741156.9474182,1.89
1764741156.95338,1.79
1764741156.9595551,1.78
1764741156.965902,1.81
1764741156.972043,1.66
1764741156.978296,1.61
1764741156.984603,1.65
1764741156.9909341,1.63
1764741156.997282,1.63
1764741157.003309,1.59
1764741157.0097122,1.59
1764741157.0157802,1.65
1764741157.022238,1.62
1764741157.0283892,1.62
1764741157.034592,1.63
1764741157.040879,1.61
1764741157.0471659,1.6
1764741157.053302,1.55
1764741157.0596328,1.6
1764741157.065839,1.77
1764741157.072027,2.06
1764741157.07841,2.75
1764741157.084671,3.05
1764741157.090932,2.75
1764741157.097506,1.9
1764741157.103435,1.1
1764741157.109664,1.35
1764741157.115852,1.69
1764741157.122028,1.55
1764741157.128303,1.5
1764741157.134599,1.56
1764741157.140862,1.53
1764741157.147146,1.54
1764741157.1533499,1.51
1764741157.159762,1.51
1764741157.1657531,1.57
1764741157.1719701,1.56
1764741157.1782851,1.57
1764741157.184584,1.6
1764741157.1907148,1.56
1764741157.197263,1.57
1764741157.203232,1.62
1764741157.209497,1.65
1764741157.215824,1.64
1764741157.222024,1.57
1764741157.228354,1.63
1764741157.234546,1.7
1764741157.2407339,1.66
1764741157.2470589,1.67
1764741157.253265,1.64
1764741157.259733,1.7
1764741157.26581,1.79
1764741157.272036,1.73
1764741157.2783082,1.74
1764741157.284636,1.8
1764741157.290911,1.78
1764741157.2971551,1.8
1764741157.303322,1.79
1764741157.30974,1.8
1764741157.31582,1.83
1764741157.321963,1.78
1764741157.32822,1.77
1764741157.334521,1.71
1764741157.340771,1.62
1764741157.347064,1.65
1764741157.353251,1.56
1764741157.359597,1.52
1764741157.365802,1.56
1764741157.372011,1.47
1764741157.378317,1.45
1764741157.384512,1.48
1764741157.390802,1.42
1764741157.397026,1.51
1764741157.403171,1.54
1764741157.409579,1.5
1764741157.415754,1.52
1764741157.421886,1.49
1764741157.428273,1.51
1764741157.4346461,1.55
1764741157.440786,1.57
1764741157.446995,1.57
1764741157.453311,1.55
1764741157.459445,1.56
1764741157.465785,1.62
1764741157.471993,1.6
1764741157.478197,1.61
1764741157.484477,1.63
1764741157.4906769,1.58
1764741157.4970539,1.66
1764741157.5031931,1.65
1764741157.5095198,1.59
1764741157.5156832,1.68
1764741157.5220292,1.65
1764741157.528239,1.63
1764741157.534414,1.63
1764741157.5406651,1.61
1764741157.546978,1.65
1764741157.5531561,1.67
1764741157.559517,1.63
1764741157.565738,1.65
1764741157.571917,1.68
1764741157.578172,1.67
1764741157.5844631,1.63
1764741157.590661,1.62
1764741157.596938,1.71
1764741157.603172,1.69
1764741157.609733,1.6
1764741157.615665,1.57
1764741157.62191,1.55
1764741157.62833,1.45
1764741157.634558,1.41
1764741157.640706,1.38
1764741157.646971,1.42
1764741157.653153,1.4
1764741157.65956,1.36
1764741157.665639,1.49
1764741157.6720011,1.54
1764741157.67823,1.53
1764741157.684507,1.6
1764741157.690641,1.72
1764741157.696991,1.77
1764741157.703169,1.7
1764741157.70963,1.65
1764741157.7157109,1.69
1764741157.721879,1.61
1764741157.728161,1.59
1764741157.7343628,1.58
1764741157.7406132,1.53
1764741157.7469718,1.58
1764741157.753143,1.65
1764741157.7595148,1.64
1764741157.765782,1.63
1764741157.771911,1.62
1764741157.778177,1.67
1764741157.784419,1.72
1764741157.790619,1.71
1764741157.7970061,1.73
1764741157.8031008,1.73
1764741157.809367,1.74
1764741157.815743,1.85
1764741157.822026,2.12
1764741157.828295,2.8
1764741157.83441,3.15
1764741157.840725,3.09
1764741157.8470101,2.49
1764741157.85318,1.37
1764741157.859469,1.4
1764741157.865664,1.97
1764741157.871878,1.92
1764741157.878154,1.75
1764741157.8844218,1.79
1764741157.890634,1.83
1764741157.897117,1.88
1764741157.9031029,1.85
1764741157.9094121,1.84
1764741157.915623,1.91
1764741157.9219258,1.89
1764741157.9282439,1.91
1764741157.934338,1.93
1764741157.94062,1.93
1764741157.9471302,1.96
1764741157.953162,1.96
1764741157.959496,1.92
1764741157.9656131,1.99
1764741157.9718468,1.99
1764741157.978112,1.97
1764741157.9843059,2.01
1764741157.9905531,2.0
1764741157.996983,2.02
1764741158.003139,2.07
1764741158.009401,2.07
1764741158.015587,2.08
1764741158.021863,2.06
1764741158.028138,2.12
1764741158.034395,2.17
1764741158.040551,2.11
1764741158.060263,2.14
1764741158.0634649,2.15
1764741158.069578,2.17
1764741158.089303,2.2
1764741158.089387,2.14
1764741158.089466,2.14
1764741158.0895538,2.11
1764741158.090631,2.06
1764741158.0982358,2.1
1764741158.103231,2.05
1764741158.109353,1.97
1764741158.115554,2.02
1764741158.121817,2.0
1764741158.1289558,1.95
1764741158.1342778,1.95
1764741158.1405802,1.95
1764741158.1468108,1.94
1764741158.152975,1.96
1764741158.15935,1.97
1764741158.165524,1.96
1764741158.171839,1.94
1764741158.1780539,1.94
1764741158.1842701,1.96
1764741158.190571,1.93
1764741158.19678,1.94
1764741158.2030258,1.96
1764741158.209368,1.96
1764741158.215607,1.96
1764741158.221784,1.92
1764741158.228106,1.92
1764741158.234377,1.97
1764741158.240507,1.95
1764741158.246819,1.93
1764741158.253037,1.89
1764741158.25947,1.89
1764741158.265505,1.92
1764741158.271764,1.85
1764741158.278275,1.87
1764741158.2842429,1.9
1764741158.290533,1.81
1764741158.2968252,1.84
1764741158.303013,1.87
1764741158.309474,1.83
1764741158.315582,1.81
1764741158.321883,1.77
1764741158.328208,1.83
1764741158.3342998,1.84
1764741158.340511,1.77
1764741158.346977,1.77
1764741158.353041,1.79
1764741158.3593678,1.79
1764741158.365551,1.78
1764741158.371737,1.73
1764741158.378075,1.76
1764741158.384259,1.77
1764741158.390502,1.72
1764741158.396859,1.74
1764741158.403044,1.74
1764741158.4097579,1.73
1764741158.41551,1.78
1764741158.4217489,1.8
1764741158.4282439,1.86
1764741158.434299,1.88
1764741158.440613,1.91
1764741158.446947,1.91
1764741158.453071,1.81
1764741158.459511,1.77
1764741158.465469,1.8
1764741158.4717581,1.7
1764741158.478085,1.66
1764741158.48427,1.64
1764741158.490527,1.55
1764741158.496767,1.59
1764741158.5030122,1.59
1764741158.509403,1.55
1764741158.515528,1.55
1764741158.521761,1.53
1764741158.527997,1.54
1764741158.534213,1.54
1764741158.540529,1.48
1764741158.546849,1.53
1764741158.5529668,1.54
1764741158.55936,1.44
1764741158.56543,1.54
1764741158.571733,1.69
1764741158.577991,2.12
1764741158.584228,2.8
1764741158.590623,2.93
1764741158.59701,2.52
1764741158.602976,1.42
1764741158.609291,0.86
1764741158.615445,1.39
1764741158.621737,1.61
1764741158.628033,1.43
1764741158.634214,1.34
1764741158.640651,1.39
1764741158.64685,1.45
1764741158.6530921,1.41
1764741158.659564,1.36
1764741158.665499,1.4
1764741158.671886,1.43
1764741158.677971,1.44
1764741158.684288,1.42
1764741158.690489,1.41
1764741158.696855,1.46
1764741158.70297,1.45
1764741158.70962,1.43
1764741158.715651,1.41
1764741158.7217002,1.42
1764741158.727953,1.48
1764741158.734186,1.47
1764741158.740752,1.42
1764741158.7468312,1.49
1764741158.7530408,1.51
1764741158.759372,1.48
1764741158.765413,1.51
1764741158.7718458,1.52
1764741158.777994,1.54
1764741158.784202,1.55
1764741158.790512,1.52
1764741158.796831,1.57
1764741158.802954,1.59
1764741158.80978,1.56
1764741158.815443,1.58
1764741158.8218591,1.57
1764741158.828033,1.55
1764741158.834217,1.51
1764741158.840395,1.49
1764741158.8466969,1.49
1764741158.8529322,1.44
1764741158.859574,1.41
1764741158.86548,1.37
1764741158.87169,1.33
1764741158.8779871,1.38
1764741158.8842392,1.43
1764741158.890393,1.33
1764741158.896856,1.31
1764741158.903012,1.38
1764741158.909271,1.39
1764741158.915524,1.38
1764741158.9217339,1.35
1764741158.927905,1.4
1764741158.934154,1.36
1764741158.940468,1.31
1764741158.946736,1.45
1764741158.9529011,1.44
1764741158.9592571,1.37
1764741158.9654558,1.39
1764741158.971607,1.39
1764741158.977955,1.39
1764741158.9842072,1.42
1764741158.9904242,1.43
1764741158.9967601,1.44
1764741159.002961,1.4
1764741159.009225,1.37
1764741159.015379,1.4
1764741159.021649,1.42
1764741159.0278678,1.43
1764741159.034135,1.39
1764741159.04064,1.36
1764741159.0466409,1.38
1764741159.0528681,1.4
1764741159.059361,1.39
1764741159.065391,1.39
1764741159.07163,1.35
1764741159.07793,1.41
1764741159.0842,1.43
1764741159.090461,1.36
1764741159.096763,1.38
1764741159.102797,1.39
1764741159.109292,1.39
1764741159.115455,1.44
1764741159.1216042,1.41
1764741159.127914,1.38
1764741159.1341472,1.36
1764741159.140516,1.44
1764741159.146802,1.47
1764741159.1528661,1.39
1764741159.159314,1.38
1764741159.1655622,1.44
1764741159.1716878,1.41
1764741159.1778078,1.47
1764741159.184096,1.54
1764741159.190614,1.52
1764741159.1966689,1.57
1764741159.2028701,1.64
1764741159.209276,1.66
1764741159.21541,1.63
1764741159.2216802,1.53
1764741159.228044,1.53
1764741159.234102,1.56
1764741159.240482,1.46
1764741159.246627,1.41
1764741159.252844,1.38
1764741159.2598011,1.38
1764741159.265373,1.4
1764741159.2715771,1.36
1764741159.2778869,1.39
1764741159.2840672,1.38
1764741159.290467,1.35
1764741159.296575,1.41
1764741159.302825,1.42
1764741159.30946,1.4
1764741159.315329,1.43
1764741159.321558,1.4
1764741159.3279302,1.41
1764741159.334077,1.54
1764741159.340278,1.83
1764741159.3466759,2.5
1764741159.352961,2.91
1764741159.359456,2.69
1764741159.365387,1.81
1764741159.371518,0.82
1764741159.377824,1.1
1764741159.390902,1.6
1764741159.3961222,1.47
1764741159.411854,1.35
1764741159.4241269,1.35
1764741159.433909,1.39
1764741159.440174,1.43
1764741159.4403021,1.42
1764741159.440755,1.46
1764741159.44336,1.45
1764741159.443491,1.43
1764741159.4465432,1.5
1764741159.452845,1.47
1764741159.4602728,1.41
1764741159.465423,1.49
1764741159.4716952,1.49
1764741159.4778051,1.49
1764741159.48409,1.5
1764741159.490239,1.48
1764741159.496495,1.49
1764741159.502849,1.51
1764741159.509174,1.51
1764741159.515288,1.53
1764741159.521612,1.53
1764741159.528001,1.59
1764741159.534039,1.62
1764741159.540432,1.6
1764741159.5465322,1.66
1764741159.5527759,1.61
1764741159.559148,1.65
1764741159.565251,1.68
1764741159.571528,1.61
1764741159.577811,1.63
1764741159.584058,1.64
1764741159.5902662,1.62
1764741159.596545,1.65
1764741159.602752,1.59
1764741159.609314,1.52
1764741159.6153479,1.53
1764741159.6215382,1.52
1764741159.6277802,1.48
1764741159.634084,1.44
1764741159.6404328,1.43
1764741159.646508,1.45
1764741159.652895,1.37
1764741159.6592581,1.42
1764741159.6652532,1.48
1764741159.671551,1.39
1764741159.677763,1.39
1764741159.6840131,1.42
1764741159.690346,1.41
1764741159.696566,1.45
1764741159.7028239,1.45
1764741159.709184,1.43
1764741159.715331,1.45
1764741159.721515,1.46
1764741159.727755,1.52
1764741159.73406,1.49
1764741159.740303,1.46
1764741159.7468019,1.49
1764741159.752685,1.46
1764741159.75918,1.5
1764741159.765204,1.52
1764741159.771502,1.44
1764741159.777864,1.48
1764741159.7839758,1.5
1764741159.790302,1.49
1764741159.796654,1.49
1764741159.802815,1.42
1764741159.809066,1.47
1764741159.815182,1.51
1764741159.821475,1.42
1764741159.82773,1.43
1764741159.8340638,1.48
1764741159.8403819,1.47
1764741159.846762,1.46
1764741159.852758,1.42
1764741159.8591518,1.48
1764741159.865298,1.52
1764741159.871766,1.46
1764741159.877811,1.46
1764741159.884165,1.44
1764741159.8902242,1.44
1764741159.896459,1.5
1764741159.9026968,1.46
1764741159.9093802,1.46
1764741159.915244,1.49
1764741159.921534,1.49
1764741159.9278998,1.58
1764741159.933943,1.59
1764741159.940278,1.54
1764741159.946465,1.69
1764741159.952728,1.7
1764741159.9591942,1.65
1764741159.9652889,1.57
1764741159.9715352,1.56
1764741159.977912,1.59
1764741159.984017,1.51
1764741159.990298,1.46
1764741159.9968,1.44
1764741160.0027452,1.39
1764741160.009242,1.43
1764741160.0152829,1.46
1764741160.021437,1.42
1764741160.027884,1.48
1764741160.03391,1.45
1764741160.0401752,1.48
1764741160.046419,1.56
1764741160.052704,1.49
1764741160.059232,1.44
1764741160.065214,1.52
1764741160.0714712,1.52
1764741160.077694,1.65
1764741160.08393,2.01
1764741160.090345,2.67
1764741160.096548,3.01
1764741160.102701,2.66
1764741160.109204,1.75
1764741160.115257,0.98
1764741160.121511,1.22
1764741160.12846,1.64
1764741160.134049,1.54
1764741160.140237,1.41
1764741160.14654,1.46
1764741160.152799,1.49
1764741160.159126,1.51
1764741160.1653461,1.52
1764741160.171515,1.45
1764741160.1778948,1.5
1764741160.1840131,1.56
1764741160.1903381,1.54
1764741160.1964538,1.54
1764741160.202697,1.54
1764741160.208982,1.56
1764741160.215292,1.58
1764741160.221453,1.54
1764741160.2278888,1.61
1764741160.233951,1.62
1764741160.240372,1.6
1764741160.246447,1.62
1764741160.252695,1.57
1764741160.259179,1.64
1764741160.2652302,1.67
1764741160.271536,1.66
1764741160.2778082,1.74
1764741160.2840672,1.73
1764741160.290276,1.71
1764741160.2966359,1.78
1764741160.302885,1.76
1764741160.309246,1.76
1764741160.31517,1.77
1764741160.321474,1.73
1764741160.327775,1.77
1764741160.333983,1.75
1764741160.340304,1.69
1764741160.346528,1.71
1764741160.3527858,1.66
1764741160.358953,1.66
1764741160.36513,1.67
1764741160.3714812,1.6
1764741160.377802,1.6
1764741160.383958,1.6
1764741160.390304,1.58
1764741160.3963861,1.63
1764741160.402636,1.59
1764741160.409099,1.58
1764741160.415065,1.61
1764741160.421568,1.58
1764741160.427695,1.61
1764741160.433951,1.61
1764741160.4403682,1.56
1764741160.446522,1.61
1764741160.452669,1.61
1764741160.459028,1.62
1764741160.465226,1.63
1764741160.47145,1.64
1764741160.477941,1.68
1764741160.484066,1.66
1764741160.490229,1.58
1764741160.496458,1.61
1764741160.502659,1.65
1764741160.509042,1.66
1764741160.515147,1.64
1764741160.52143,1.62
1764741160.527911,1.65
1764741160.5338712,1.61
1764741160.540253,1.61
1764741160.546428,1.65
1764741160.552578,1.62
1764741160.559058,1.61
1764741160.565136,1.61
1764741160.571359,1.56
1764741160.5777678,1.61
1764741160.5837939,1.6
1764741160.590192,1.56
1764741160.5964422,1.59
1764741160.602525,1.57
1764741160.609032,1.61
1764741160.6150668,1.63
1764741160.6213288,1.56
1764741160.628216,1.61
1764741160.633783,1.62
1764741160.640209,1.57
1764741160.646445,1.59
1764741160.652617,1.6
1764741160.6591349,1.66
1764741160.6651149,1.71
1764741160.671508,1.65
1764741160.6777081,1.69
1764741160.6839511,1.83
1764741160.690329,1.85
1764741160.696346,1.76
1764741160.70259,1.66
1764741160.70911,1.73
1764741160.7152598,1.64
1764741160.7215471,1.49
1764741160.7276669,1.55
1764741160.733998,1.5
1764741160.740279,1.43
1764741160.760067,1.46
1764741160.78034,1.45
1764741160.788821,1.4
1764741160.7889621,1.41
1764741160.789098,1.44
1764741160.789239,1.49
1764741160.789373,1.41
1764741160.793813,1.41
1764741160.798045,1.47
1764741160.804182,1.39
1764741160.815344,1.43
1764741160.816551,1.59
1764741160.8212469,1.9
1764741160.827737,2.56
1764741160.834054,2.9
1764741160.840131,2.64
1764741160.8463218,1.74
1764741160.8525078,0.84
1764741160.858953,1.17
1764741160.865124,1.6
1764741160.871349,1.44
1764741160.877627,1.33
1764741160.883848,1.41
1764741160.890164,1.43
1764741160.896354,1.42
1764741160.9025369,1.4
1764741160.9088771,1.44
1764741160.915194,1.43
1764741160.921335,1.41
1764741160.927862,1.45
1764741160.933904,1.43
1764741160.940182,1.46
1764741160.946378,1.47
1764741160.9526012,1.46
1764741160.959161,1.49
1764741160.965185,1.49
1764741160.971508,1.49
1764741160.977739,1.55
1764741160.983964,1.51
1764741160.990174,1.49
1764741160.996244,1.58
1764741161.002539,1.58
1764741161.008991,1.55
1764741161.015094,1.57
1764741161.021309,1.61
1764741161.028063,1.68
1764741161.033839,1.66
1764741161.040159,1.63
1764741161.046286,1.66
1764741161.052477,1.68
1764741161.0590138,1.71
1764741161.065112,1.65
1764741161.071306,1.64
1764741161.077726,1.68
1764741161.083959,1.59
1764741161.0901601,1.6
1764741161.0963771,1.59
1764741161.102609,1.53
1764741161.108995,1.54
1764741161.115256,1.53
1764741161.121501,1.48
1764741161.127712,1.52
1764741161.1339872,1.52
1764741161.1401012,1.47
1764741161.146294,1.49
1764741161.152451,1.52
1764741161.1587682,1.54
1764741161.165174,1.51
1764741161.171356,1.51
1764741161.1776252,1.57
1764741161.1841412,1.53
1764741161.1900969,1.52
1764741161.196291,1.57
1764741161.2025301,1.54
1764741161.209003,1.56
1764741161.215073,1.59
1764741161.221288,1.55
1764741161.227587,1.57
1764741161.233855,1.59
1764741161.2401211,1.6
1764741161.246345,1.59
1764741161.25255,1.54
1764741161.25892,1.62
1764741161.2650392,1.63
1764741161.2712278,1.58
1764741161.277545,1.6
1764741161.283784,1.53
1764741161.290066,1.56
1764741161.296294,1.64
1764741161.302594,1.58
1764741161.308928,1.55
1764741161.315016,1.56
1764741161.321293,1.56
1764741161.327616,1.61
1764741161.3337998,1.57
1764741161.340322,1.54
1764741161.346187,1.57
1764741161.3525078,1.58
1764741161.3587148,1.57
1764741161.364991,1.57
1764741161.3711739,1.59
1764741161.377457,1.58
1764741161.3837261,1.55
1764741161.390044,1.59
1764741161.3961868,1.62
1764741161.40239,1.57
1764741161.408884,1.63
1764741161.414937,1.7
1764741161.421173,1.67
1764741161.427412,1.71
1764741161.433672,1.8
1764741161.440045,1.91
1764741161.446211,1.88
1764741161.4523442,1.75
1764741161.4588008,1.73
1764741161.464994,1.75
1764741161.471141,1.65
1764741161.47759,1.59
1764741161.483676,1.55
1764741161.490037,1.55
1764741161.4960792,1.55
1764741161.502362,1.49
1764741161.508769,1.58
1764741161.515129,1.57
1764741161.5212202,1.52
1764741161.527734,1.56
1764741161.533748,1.53
1764741161.5399969,1.53
1764741161.546377,1.54
1764741161.552437,1.52
1764741161.5588522,1.54
1764741161.564917,1.61
1764741161.5712671,1.79
1764741161.577666,2.4
1764741161.5836968,2.97
1764741161.589931,2.91
1764741161.5962791,2.29
1764741161.602408,1.13
1764741161.608811,1.05
1764741161.614947,1.6
1764741161.6211782,1.59
1764741161.627441,1.45
1764741161.633672,1.41
1764741161.640024,1.45
1764741161.646163,1.5
1764741161.652583,1.49
1764741161.658977,1.53
1764741161.665084,1.5
1764741161.6712399,1.47
1764741161.6775591,1.49
1764741161.683703,1.47
1764741161.6899352,1.53
1764741161.696364,1.54
1764741161.702452,1.49
1764741161.7087202,1.52
1764741161.715015,1.54
1764741161.72112,1.51
1764741161.7274728,1.54
1764741161.73375,1.57
1764741161.7399879,1.59
1764741161.746122,1.57
1764741161.752521,1.56
1764741161.758751,1.65
1764741161.764995,1.61
1764741161.7711182,1.57
1764741161.7775638,1.71
1764741161.783704,1.69
1764741161.7901518,1.66
1764741161.7961018,1.73
1764741161.802447,1.7
1764741161.808906,1.71
1764741161.8148649,1.73
1764741161.821121,1.7
1764741161.8274162,1.7
1764741161.833823,1.66
1764741161.8398678,1.66
1764741161.846124,1.62
1764741161.852363,1.52
1764741161.8586318,1.57
1764741161.864925,1.59
1764741161.8711271,1.51
1764741161.877451,1.51
1764741161.883717,1.5
1764741161.8900638,1.5
1764741161.896061,1.53
1764741161.902355,1.51
1764741161.90895,1.5
1764741161.9147918,1.47
1764741161.921064,1.48
1764741161.9274502,1.56
1764741161.9336262,1.54
1764741161.939896,1.53
1764741161.9460769,1.52
1764741161.9524632,1.5
1764741161.958821,1.57
1764741161.964976,1.56
1764741161.9710872,1.52
1764741161.9774342,1.56
1764741161.983572,1.55
1764741161.9900749,1.55
1764741161.99605,1.58
1764741162.002377,1.58
1764741162.0087318,1.59
1764741162.014888,1.56
1764741162.021043,1.55
1764741162.0274088,1.55
1764741162.033725,1.55
1764741162.039806,1.59
1764741162.046165,1.6
1764741162.052263,1.52
1764741162.05869,1.52
1764741162.064775,1.61
1764741162.070962,1.58
1764741162.077987,1.57
1764741162.083572,1.54
1764741162.089752,1.52
1764741162.096045,1.58
1764741162.102232,1.6
1764741162.1090298,1.59
1764741162.114818,1.57
1764741162.1210089,1.54
1764741162.127607,1.56
1764741162.133497,1.53
1764741162.139801,1.57
1764741162.1539478,1.57
1764741162.1599932,1.54
1764741162.162334,1.59
1764741162.20315,1.62
1764741162.203289,1.66
1764741162.203378,1.73
1764741162.203466,1.66
1764741162.203558,1.71
1764741162.2036428,1.91
1764741162.203729,1.88
1764741162.214986,1.79
1764741162.2151182,1.74
1764741162.221728,1.77
1764741162.229104,1.65
1764741162.233502,1.52
1764741162.239746,1.57
1764741162.2460291,1.56
1764741162.2522008,1.46
1764741162.259031,1.5
1764741162.264713,1.52
1764741162.271001,1.52
1764741162.277335,1.52
1764741162.283457,1.49
1764741162.28973,1.54
1764741162.295972,1.54
1764741162.3022342,1.49
1764741162.309345,1.53
1764741162.314653,1.52
1764741162.3209732,1.57
1764741162.327353,1.75
1764741162.33349,2.17
1764741162.339804,2.89
1764741162.345938,2.98
1764741162.352248,2.51
1764741162.3586318,1.45
1764741162.3647301,0.96
1764741162.370999,1.47
1764741162.377284,1.67
1764741162.383469,1.49
1764741162.3897889,1.47
1764741162.3960419,1.53
1764741162.402177,1.52
1764741162.4095922,1.55
1764741162.414708,1.52
1764741162.420923,1.54
1764741162.427386,1.58
1764741162.4333792,1.55
1764741162.4397051,1.6
1764741162.4460979,1.6
1764741162.452188,1.6
1764741162.459627,1.65
1764741162.464801,1.6
1764741162.471004,1.61
1764741162.4773161,1.67
1764741162.483451,1.63
1764741162.4899478,1.68
1764741162.4960241,1.69
1764741162.502212,1.63
1764741162.508708,1.68
1764741162.514905,1.74
1764741162.521077,1.74
1764741162.5274591,1.72
1764741162.533727,1.74
1764741162.539812,1.84
1764741162.546168,1.8
1764741162.552162,1.71
1764741162.558749,1.81
1764741162.5648232,1.84
1764741162.5712042,1.81
1764741162.577384,1.82
1764741162.58346,1.81
1764741162.5899122,1.74
1764741162.596107,1.76
1764741162.60235,1.72
1764741162.608617,1.66
1764741162.614897,1.68
1764741162.621158,1.64
1764741162.6273658,1.65
1764741162.633528,1.66
1764741162.639769,1.56
1764741162.646098,1.57
1764741162.6523142,1.57
1764741162.659832,1.55
1764741162.6648262,1.58
1764741162.671059,1.53
1764741162.6773498,1.53
1764741162.683567,1.59
1764741162.6897511,1.58
1764741162.696039,1.57
1764741162.7022789,1.6
1764741162.70993,1.66
1764741162.714821,1.63
1764741162.72106,1.61
1764741162.727526,1.62
1764741162.733502,1.6
1764741162.73966,1.67
1764741162.746033,1.68
1764741162.7522712,1.61
1764741162.7591949,1.66
1764741162.7647302,1.68
1764741162.7711139,1.65
1764741162.777417,1.66
1764741162.783425,1.64
1764741162.789748,1.64
1764741162.795948,1.66
1764741162.8021429,1.69
1764741162.8087082,1.67
1764741162.814761,1.59
1764741162.820867,1.65
1764741162.827361,1.67
1764741162.833488,1.57
1764741162.839755,1.64
1764741162.845902,1.67
1764741162.8521678,1.61
1764741162.858559,1.64
1764741162.864612,1.64
1764741162.870927,1.65
1764741162.877718,1.65
1764741162.8835251,1.66
1764741162.8895879,1.74
1764741162.895945,1.76
1764741162.9023209,1.75
1764741162.909735,1.9
1764741162.914669,1.9
1764741162.92101,1.85
1764741162.9274082,1.78
1764741162.9334028,1.74
1764741162.939702,1.76
1764741162.945906,1.67
1764741162.952201,1.62
1764741162.958687,1.65
1764741162.9646568,1.6
1764741162.970774,1.6
1764741162.977278,1.61
1764741162.983525,1.54
1764741162.989718,1.61
1764741162.995896,1.64
1764741163.002037,1.59
1764741163.009686,1.62
1764741163.014669,1.62
1764741163.0208519,1.62
1764741163.027305,1.63
1764741163.033328,1.58
1764741163.039639,1.7
1764741163.045792,1.93
1764741163.0520792,2.52
1764741163.05904,3.13
1764741163.064499,2.98
1764741163.070732,2.32
1764741163.077024,1.32
1764741163.083253,1.18
1764741163.0896661,1.62
1764741163.095745,1.7
1764741163.102006,1.54
1764741163.1084511,1.54
1764741163.114497,1.54
1764741163.120831,1.58
1764741163.127073,1.59
1764741163.133288,1.55
1764741163.1396632,1.62
1764741163.145855,1.6
1764741163.1521401,1.58
1764741163.1594381,1.63
1764741163.164489,1.59
1764741163.170731,1.64
1764741163.177019,1.71
1764741163.183233,1.64
1764741163.189549,1.68
1764741163.195754,1.67
1764741163.201996,1.63
1764741163.2093608,1.67
1764741163.214635,1.67
1764741163.220934,1.68
1764741163.2271261,1.73
1764741163.233251,1.72
1764741163.2397282,1.74
1764741163.245864,1.75
1764741163.25223,1.76
1764741163.259476,1.82
1764741163.264595,1.78
1764741163.270755,1.78
1764741163.277164,1.82
1764741163.28355,1.81
1764741163.289833,1.81
1764741163.295948,1.77
1764741163.3020532,1.74
1764741163.308492,1.76
1764741163.314519,1.7
1764741163.320697,1.72
1764741163.327044,1.73
1764741163.333261,1.64
1764741163.3395488,1.65
1764741163.345781,1.67
1764741163.351995,1.62
1764741163.358707,1.62
1764741163.3645198,1.61
1764741163.370757,1.62
1764741163.377107,1.6
1764741163.383273,1.58
1764741163.389535,1.65
1764741163.395861,1.66
1764741163.401973,1.59
1764741163.4085,1.64
1764741163.414464,1.66
1764741163.420703,1.68
1764741163.427043,1.7
1764741163.4333062,1.66
1764741163.439531,1.67
1764741163.4457338,1.66
1764741163.4520051,1.67
1764741163.459072,1.72
1764741163.464475,1.67
1764741163.470699,1.67
1764741163.4770188,1.68
1764741163.483229,1.61
1764741163.4894788,1.68
1764741163.495657,1.7
1764741163.502033,1.63
1764741163.508577,1.64
1764741163.514532,1.62
1764741163.520759,1.64
1764741163.52719,1.65
1764741163.533222,1.61
1764741163.5396101,1.65
1764741163.545727,1.65
1764741163.552019,1.64
1764741163.558654,1.72
1764741163.5644622,1.74
1764741163.570714,1.74
1764741163.576973,1.77
1764741163.583244,1.87
1764741163.5895848,1.92
1764741163.621105,1.79
1764741163.621244,1.76
1764741163.6213708,1.87
1764741163.6215,1.69
1764741163.631547,1.55
1764741163.631692,1.6
1764741163.662482,1.57
1764741163.663297,1.54
1764741163.663469,1.52
1764741163.663532,1.52
1764741163.663594,1.59
1764741163.664431,1.53
1764741163.671616,1.49
1764741163.6769128,1.56
1764741163.683241,1.57
1764741163.689606,1.58
1764741163.6957781,1.54
1764741163.7020102,1.51
1764741163.708342,1.58
1764741163.7145972,1.66
1764741163.720803,1.96
1764741163.7269802,2.63
1764741163.7332559,3.0
1764741163.739507,2.83
1764741163.745901,2.0
1764741163.7520902,1.01
1764741163.7586849,1.25
1764741163.764472,1.67
1764741163.770777,1.6
1764741163.777071,1.47
1764741163.78323,1.47
1764741163.789533,1.58
1764741163.795868,1.54
1764741163.801993,1.49
1764741163.8088782,1.54
1764741163.814432,1.51
1764741163.820826,1.54
1764741163.827192,1.57
1764741163.833152,1.53
1764741163.839464,1.57
1764741163.8456619,1.57
1764741163.851857,1.56
1764741163.85828,1.6
1764741163.864428,1.56
1764741163.870826,1.58
1764741163.876867,1.59
1764741163.8832169,1.58
1764741163.889417,1.66
1764741163.895628,1.65
1764741163.90189,1.64
1764741163.908422,1.69
1764741163.9144409,1.66
1764741163.920589,1.71
1764741163.926943,1.74
1764741163.933221,1.7
1764741163.939571,1.74
1764741163.945759,1.74
1764741163.9519591,1.72
1764741163.958729,1.74
1764741163.964552,1.65
1764741163.9710798,1.72
1764741163.9769752,1.74
1764741163.9832451,1.62
1764741163.989642,1.62
1764741163.995837,1.57
1764741164.002007,1.51
1764741164.009293,1.59
1764741164.014387,1.56
1764741164.020891,1.51
1764741164.026954,1.52
1764741164.03326,1.49
1764741164.039467,1.51
1764741164.045782,1.48
1764741164.0521479,1.48
1764741164.058541,1.52
1764741164.064461,1.46
1764741164.070698,1.51
1764741164.077055,1.53
1764741164.083195,1.46
1764741164.0895119,1.53
1764741164.095582,1.52
1764741164.1018639,1.5
1764741164.1081622,1.53
1764741164.114345,1.5
1764741164.1207302,1.53
1764741164.126919,1.53
1764741164.133128,1.47
1764741164.139423,1.5
1764741164.145647,1.49
1764741164.151891,1.52
1764741164.158151,1.53
1764741164.1643908,1.46
1764741164.170736,1.5
1764741164.176841,1.52
1764741164.183088,1.49
1764741164.1895502,1.57
1764741164.19568,1.49
1764741164.2019289,1.41
1764741164.2082171,1.52
1764741164.214348,1.48
1764741164.220592,1.46
1764741164.2268841,1.5
1764741164.233251,1.49
1764741164.239425,1.59
1764741164.245714,1.63
1764741164.2518668,1.59
1764741164.258334,1.61
1764741164.264386,1.71
1764741164.270717,1.76
1764741164.276992,1.74
1764741164.283226,1.62
1764741164.290138,1.67
1764741164.296042,1.59
1764741164.301826,1.45
1764741164.3081138,1.46
1764741164.3143418,1.39
1764741164.320699,1.37
1764741164.326879,1.4
1764741164.333042,1.35
1764741164.340387,1.38
1764741164.345537,1.4
1764741164.351755,1.36
1764741164.358287,1.37
1764741164.364365,1.36
1764741164.370552,1.38
1764741164.376797,1.39
1764741164.3832052,1.38
1764741164.389459,1.37
1764741164.395589,1.46
1764741164.40175,1.7
1764741164.408549,2.28
1764741164.414334,2.77
1764741164.42094,2.78
1764741164.426972,2.23
1764741164.433147,1.0
1764741164.4392629,0.86
1764741164.445533,1.48
1764741164.453075,1.52
1764741164.472573,1.35
1764741164.472757,1.3
1764741164.472874,1.41
1764741164.492828,1.42
1764741164.4930072,1.38
1764741164.493112,1.38
1764741164.513118,1.41
1764741164.5132391,1.45
1764741164.518774,1.45
1764741164.525217,1.38
1764741164.525381,1.43
1764741164.528982,1.47
1764741164.545262,1.44
1764741164.545363,1.49
1764741164.545454,1.49
1764741164.552886,1.49
1764741164.558038,1.53
1764741164.564335,1.49
1764741164.570612,1.51
1764741164.5767858,1.54
1764741164.5830421,1.5
1764741164.589397,1.58
1764741164.595607,1.6
1764741164.6018538,1.59
1764741164.607934,1.64
1764741164.614312,1.62
1764741164.620545,1.67
1764741164.6267478,1.67
1764741164.632889,1.64
1764741164.639211,1.71
1764741164.645462,1.68
1764741164.6516302,1.63
1764741164.657973,1.67
1764741164.6643279,1.66
1764741164.670623,1.65
1764741164.676811,1.58
1764741164.6830342,1.54
1764741164.689564,1.58
1764741164.695461,1.55
1764741164.701725,1.52
1764741164.708243,1.55
1764741164.71423,1.49
1764741164.7206259,1.51
1764741164.726725,1.52
1764741164.73293,1.53
1764741164.739676,1.58
1764741164.745513,1.55
1764741164.751729,1.54
1764741164.758067,1.56
1764741164.7643478,1.51
1764741164.770577,1.56
1764741164.776719,1.63
1764741164.782987,1.58
1764741164.789417,1.59
1764741164.795417,1.55
1764741164.8017988,1.55
1764741164.80867,1.59
1764741164.814311,1.56
1764741164.820746,1.59
1764741164.82689,1.59
1764741164.8330162,1.54
1764741164.8393931,1.58
1764741164.845462,1.57
1764741164.8517382,1.59
1764741164.858252,1.61
1764741164.864225,1.54
1764741164.870668,1.57
1764741164.876818,1.61
1764741164.882996,1.56
1764741164.889368,1.59
1764741164.8954282,1.59
1764741164.901762,1.6
1764741164.90958,1.62
1764741164.9143941,1.55
1764741164.920656,1.59
1764741164.9268749,1.62
1764741164.9332218,1.65
1764741164.939369,1.74
1764741164.945782,1.68
1764741164.9516952,1.7
1764741164.958206,1.89
1764741164.964304,1.86
1764741164.970526,1.79
1764741164.976794,1.76
1764741164.983031,1.74
1764741164.989687,1.66
1764741164.9953768,1.52
1764741165.0017831,1.57
1764741165.008367,1.59
1764741165.014268,1.47
1764741165.020515,1.49
1764741165.02674,1.55
1764741165.0329442,1.53
1764741165.03935,1.52
1764741165.0455449,1.49
1764741165.052462,1.52
1764741165.058249,1.59
1764741165.064251,1.55
1764741165.070475,1.57
1764741165.076706,1.54
1764741165.08306,1.52
1764741165.089914,1.74
1764741165.0955431,2.04
1764741165.101703,2.68
1764741165.109241,3.08
1764741165.1141582,2.82
1764741165.1228118,1.88
1764741165.1267421,0.99
1764741165.13303,1.29
1764741165.139541,1.72
1764741165.145438,1.55
1764741165.151642,1.47
1764741165.158037,1.55
1764741165.1643252,1.55
1764741165.1705348,1.52
1764741165.1766772,1.53
1764741165.1829472,1.57
1764741165.1892009,1.59
1764741165.195344,1.58
1764741165.201876,1.58
1764741165.208032,1.6
1764741165.214241,1.56
1764741165.2205,1.64
1764741165.22665,1.64
1764741165.2329621,1.59
1764741165.239254,1.65
1764741165.2454422,1.64
1764741165.2516391,1.64
1764741165.2579808,1.7
1764741165.264142,1.64
1764741165.2704582,1.67
1764741165.276766,1.74
1764741165.2828958,1.72
1764741165.289328,1.75
1764741165.2955441,1.74
1764741165.301601,1.8
1764741165.307932,1.79
1764741165.3141189,1.77
1764741165.320457,1.85
1764741165.326748,1.81
1764741165.33297,1.74
1764741165.3395991,1.8
1764741165.345427,1.77
1764741165.351739,1.71
1764741165.3579452,1.77
1764741165.3640802,1.73
1764741165.370545,1.69
1764741165.376676,1.67
1764741165.382926,1.63
1764741165.389556,1.65
1764741165.395437,1.63
1764741165.401807,1.61
1764741165.4079008,1.64
1764741165.414334,1.58
1764741165.420446,1.65
1764741165.426728,1.67
1764741165.4329119,1.63
1764741165.439488,1.64
1764741165.445417,1.61
1764741165.451639,1.63
1764741165.457862,1.69
1764741165.4641669,1.66
1764741165.470576,1.69
1764741165.476795,1.67
1764741165.4829981,1.65
1764741165.489234,1.65
1764741165.495401,1.64
1764741165.501888,1.69
1764741165.50793,1.7
1764741165.514399,1.64
1764741165.5204322,1.66
1764741165.5266619,1.68
1764741165.532964,1.64
1764741165.539328,1.65
1764741165.545433,1.63
1764741165.551605,1.63
1764741165.558016,1.69
1764741165.564037,1.62
1764741165.570446,1.64
1764741165.576749,1.67
1764741165.582838,1.62
1764741165.589335,1.6
1764741165.5953321,1.59
1764741165.60166,1.66
1764741165.6081321,1.72
1764741165.61413,1.7
1764741165.620408,1.74
1764741165.626722,1.78
1764741165.6328871,1.84
1764741165.639437,1.92
1764741165.645516,1.88
1764741165.651687,1.78
1764741165.6580229,1.83
1764741165.6640792,1.76
1764741165.670455,1.63
1764741165.676634,1.57
1764741165.6829271,1.59
1764741165.689249,1.58
1764741165.695499,1.49
1764741165.701779,1.54
1764741165.708193,1.6
1764741165.714103,1.54
1764741165.720588,1.56
1764741165.726814,1.54
1764741165.732915,1.52
1764741165.739213,1.58
1764741165.745441,1.58
1764741165.751603,1.58
1764741165.7577841,1.56
1764741165.764139,1.61
1764741165.770358,1.86
1764741165.776767,2.42
1764741165.782788,3.0
1764741165.789126,3.03
1764741165.795407,2.42
1764741165.801727,1.31
1764741165.8079941,1.12
1764741165.814137,1.54
1764741165.820436,1.62
1764741165.826717,1.49
1764741165.832973,1.49
1764741165.8395772,1.6
1764741165.845501,1.55
1764741165.851707,1.52
1764741165.857924,1.59
1764741165.8640609,1.55
1764741165.8707578,1.57
1764741165.8767629,1.56
1764741165.882896,1.54
1764741165.889288,1.63
1764741165.895348,1.56
1764741165.9017642,1.52
1764741165.907915,1.57
1764741165.9261272,1.54
1764741165.92665,1.55
1764741165.926934,1.51
1764741165.938261,1.48
1764741165.956013,1.56
1764741165.972215,1.54
1764741165.9723258,1.55
1764741165.9724228,1.61
1764741165.972537,1.55
1764741165.972636,1.55
1764741165.979578,1.57
1764741165.982835,1.6
1764741165.991094,1.64
1764741165.9952261,1.59
1764741166.0015638,1.6
1764741166.00772,1.61
1764741166.0140212,1.54
1764741166.0202858,1.61
1764741166.0264919,1.6
1764741166.0327199,1.52
1764741166.039188,1.55
1764741166.045213,1.48
1764741166.0515041,1.45
1764741166.0582001,1.48
1764741166.0640268,1.41
1764741166.070219,1.42
1764741166.076449,1.44
1764741166.0826712,1.41
1764741166.08931,1.43
1764741166.095197,1.41
1764741166.1013288,1.4
1764741166.1078799,1.44
1764741166.11407,1.41
1764741166.120162,1.44
1764741166.126483,1.45
1764741166.132763,1.4
1764741166.1390982,1.45
1764741166.145206,1.49
1764741166.151454,1.49
1764741166.157794,1.48
1764741166.1638882,1.41
1764741166.1701381,1.47
1764741166.176477,1.46
1764741166.182693,1.42
1764741166.190065,1.52
1764741166.195304,1.49
1764741166.2015529,1.46
1764741166.20805,1.47
1764741166.213964,1.47
1764741166.220339,1.49
1764741166.22651,1.46
1764741166.232903,1.46
1764741166.23901,1.48
1764741166.2455769,1.42
1764741166.2516422,1.48
1764741166.25795,1.52
1764741166.263958,1.45
1764741166.2702231,1.46
1764741166.276515,1.49
1764741166.282788,1.56
1764741166.289255,1.65
1764741166.29522,1.57
1764741166.3015208,1.58
1764741166.307926,1.74
1764741166.3141959,1.74
1764741166.320277,1.67
1764741166.32655,1.61
1764741166.332808,1.69
1764741166.339181,1.63
1764741166.345409,1.44
1764741166.3517802,1.44
1764741166.357832,1.45
1764741166.364336,1.34
1764741166.370228,1.39
1764741166.376479,1.42
1764741166.3826492,1.39
1764741166.389013,1.41
1764741166.395156,1.36
1764741166.4014132,1.39
1764741166.407748,1.45
1764741166.413883,1.45
1764741166.420157,1.47
1764741166.4265332,1.42
1764741166.432705,1.42
1764741166.4390578,1.58
1764741166.445118,1.77
1764741166.451516,2.43
1764741166.457713,3.0
1764741166.464085,2.78
1764741166.470197,1.99
1764741166.476595,1.02
1764741166.482802,1.09
1764741166.488975,1.59
1764741166.495174,1.52
1764741166.501585,1.4
1764741166.5077739,1.46
1764741166.514018,1.47
1764741166.52027,1.47
1764741166.526432,1.46
1764741166.532764,1.5
1764741166.5390239,1.52
1764741166.545179,1.45
1764741166.551595,1.49
1764741166.558086,1.55
1764741166.563949,1.48
1764741166.570386,1.52
1764741166.5763772,1.55
1764741166.582701,1.53
1764741166.590275,1.55
1764741166.595156,1.55
1764741166.6014771,1.57
1764741166.607815,1.58
1764741166.6142569,1.59
1764741166.620169,1.65
1764741166.6264162,1.6
1764741166.6326232,1.61
1764741166.639084,1.72
1764741166.645151,1.71
1764741166.651448,1.74
1764741166.657591,1.74
1764741166.6638432,1.68
1764741166.6701388,1.73
1764741166.6763442,1.77
1764741166.6825888,1.74
1764741166.688822,1.74
1764741166.695086,1.69
1764741166.7013812,1.74
1764741166.707842,1.74
1764741166.713859,1.63
1764741166.7201018,1.64
1764741166.726542,1.61
1764741166.732906,1.59
1764741166.7396128,1.65
1764741166.745188,1.59
1764741166.751874,1.58
1764741166.757855,1.57
1764741166.764019,1.52
1764741166.770165,1.63
1764741166.776448,1.61
1764741166.7826638,1.56
1764741166.7889228,1.61
1764741166.795328,1.57
1764741166.8017,1.61
1764741166.807693,1.63
1764741166.81405,1.56
1764741166.820242,1.6
1764741166.826391,1.58
1764741166.8327732,1.58
1764741166.838888,1.64
1764741166.8451269,1.6
1764741166.851347,1.61
1764741166.8576288,1.61
1764741166.863801,1.56
1764741166.8700778,1.62
1764741166.876447,1.62
1764741166.882524,1.57
1764741166.888891,1.62
1764741166.8951218,1.6
1764741166.901271,1.6
1764741166.907706,1.6
1764741166.913921,1.56
1764741166.9202728,1.6
1764741166.926462,1.57
1764741166.932791,1.56
1764741166.939216,1.61
1764741166.9451919,1.56
1764741166.951427,1.62
1764741166.95776,1.66
1764741166.963816,1.66
1764741166.970061,1.76
1764741166.976314,1.72
1764741166.9826088,1.74
1764741166.9895282,1.91
1764741166.9952252,1.83
1764741167.001323,1.76
1764741167.007883,1.76
1764741167.013847,1.7
1764741167.0201201,1.62
1764741167.0264142,1.57
1764741167.032505,1.53
1764741167.039098,1.5
1764741167.045037,1.45
1764741167.051289,1.53
1764741167.057489,1.52
1764741167.063745,1.45
1764741167.070018,1.51
1764741167.076222,1.5
1764741167.082508,1.48
1764741167.088785,1.54
1764741167.0950751,1.52
1764741167.1012611,1.48
1764741167.107559,1.47
1764741167.113826,1.53
1764741167.120003,1.74
1764741167.1262321,2.13
1764741167.1325371,2.79
1764741167.138885,3.0
1764741167.145045,2.57
1764741167.151345,1.51
1764741167.157582,0.94
1764741167.16373,1.4
1764741167.170078,1.68
1764741167.176319,1.46
1764741167.182425,1.38
1764741167.189016,1.49
1764741167.1949608,1.49
1764741167.20129,1.5
1764741167.207592,1.49
1764741167.213849,1.45
1764741167.21997,1.5
1764741167.226261,1.48
1764741167.2325902,1.49
1764741167.238858,1.52
1764741167.245057,1.51
1764741167.251295,1.53
1764741167.257597,1.51
1764741167.263747,1.5
1764741167.26996,1.57
1764741167.2762089,1.54
1764741167.28249,1.52
1764741167.289481,1.61
1764741167.2949362,1.6
1764741167.301503,1.63
1764741167.307559,1.59
1764741167.3136482,1.6
1764741167.319993,1.71
1764741167.383071,1.65
1764741167.3832262,1.67
1764741167.383413,1.74
1764741167.3835251,1.65
1764741167.3839612,1.71
1764741167.384135,1.75
1764741167.3842182,1.67
1764741167.384299,1.68
1764741167.3844638,1.65
1764741167.384536,1.61
1764741167.3886988,1.64
1764741167.394922,1.55
1764741167.4011369,1.56
1764741167.407552,1.56
1764741167.4138198,1.51
1764741167.42004,1.52
1764741167.426154,1.52
1764741167.432571,1.53
1764741167.438674,1.51
1764741167.445029,1.44
1764741167.451212,1.52
1764741167.457435,1.54
1764741167.463645,1.49
1764741167.46996,1.52
1764741167.476161,1.51
1764741167.482498,1.52
1764741167.4889688,1.52
1764741167.4949162,1.47
1764741167.5013802,1.54
1764741167.507531,1.54
1764741167.5137012,1.49
1764741167.519965,1.5
1764741167.526283,1.5
1764741167.5326788,1.52
1764741167.5389462,1.53
1764741167.545014,1.48
1764741167.551234,1.52
1764741167.557709,1.48
1764741167.563869,1.45
1764741167.5700212,1.53
1764741167.5762382,1.5
1764741167.582567,1.46
1764741167.590711,1.51
1764741167.595147,1.46
1764741167.601341,1.52
1764741167.60807,1.49
1764741167.61378,1.43
1764741167.619914,1.53
1764741167.626206,1.51
1764741167.632465,1.49
1764741167.6389802,1.5
1764741167.644968,1.46
1764741167.651177,1.52
1764741167.657397,1.58
1764741167.663618,1.59
1764741167.669951,1.65
1764741167.676171,1.6
1764741167.682579,1.67
1764741167.688735,1.81
1764741167.6951501,1.77
1764741167.7013602,1.7
1764741167.707548,1.68
1764741167.713737,1.58
1764741167.721324,1.49
1764741167.726156,1.46
1764741167.732469,1.45
1764741167.739012,1.46
1764741167.744921,1.39
1764741167.751242,1.45
1764741167.757386,1.46
1764741167.76377,1.41
1764741167.76995,1.47
1764741167.776213,1.42
1764741167.78251,1.44
1764741167.788877,1.49
1764741167.794917,1.41
1764741167.801138,1.45
1764741167.807564,1.49
1764741167.8136268,1.52
1764741167.8200479,1.8
1764741167.826179,2.39
1764741167.832407,2.92
1764741167.8387682,2.86
1764741167.844816,2.13
1764741167.851208,1.06
1764741167.8574998,1.03
1764741167.863601,1.5
1764741167.8700821,1.57
1764741167.876148,1.36
1764741167.8823621,1.4
1764741167.88905,1.49
1764741167.8948638,1.37
1764741167.901083,1.45
1764741167.907522,1.47
1764741167.913559,1.46
1764741167.920034,1.52
1764741167.926097,1.45
1764741167.93231,1.46
1764741167.9387069,1.55
1764741167.944841,1.5
1764741167.951325,1.54
1764741167.957634,1.53
1764741167.9636722,1.53
1764741167.970316,1.62
1764741167.9761658,1.54
1764741167.982837,1.56
1764741167.988798,1.64
1764741167.994851,1.61
1764741168.0011818,1.65
1764741168.007481,1.67
1764741168.0136378,1.69
1764741168.0201228,1.75
1764741168.02608,1.69
1764741168.032305,1.73
1764741168.0386539,1.8
1764741168.044797,1.72
1764741168.051126,1.79
1764741168.0573912,1.78
1764741168.063566,1.74
1764741168.069849,1.78
1764741168.076001,1.7
1764741168.082309,1.69
1764741168.0885088,1.77
1764741168.0947368,1.67
1764741168.1010098,1.68
1764741168.107221,1.66
1764741168.1136692,1.61
1764741168.11986,1.64
1764741168.126007,1.61
1764741168.132245,1.61
1764741168.138507,1.64
1764741168.144763,1.57
1764741168.151008,1.63
1764741168.157218,1.62
1764741168.163579,1.6
1764741168.169945,1.7
1764741168.176012,1.62
1764741168.182244,1.62
1764741168.1886752,1.72
1764741168.194914,1.64
1764741168.201065,1.65
1764741168.20733,1.7
1764741168.213582,1.69
1764741168.220331,1.7
1764741168.2260952,1.64
1764741168.2324,1.68
1764741168.238637,1.73
1764741168.244819,1.65
1764741168.25104,1.66
1764741168.257427,1.66
1764741168.263621,1.67
1764741168.270129,1.73
1764741168.2760398,1.64
1764741168.282269,1.64
1764741168.2885828,1.68
1764741168.294784,1.65
1764741168.301058,1.69
1764741168.307292,1.62
1764741168.313534,1.6
1764741168.3199801,1.71
1764741168.3261042,1.64
1764741168.332482,1.71
1764741168.338562,1.83
1764741168.344897,1.74
1764741168.351278,1.78
1764741168.357739,1.91
1764741168.3636742,1.9
1764741168.3698869,1.92
1764741168.37626,1.79
1764741168.382406,1.8
1764741168.3886878,1.78
1764741168.395116,1.59
1764741168.401213,1.63
1764741168.407451,1.59
1764741168.413663,1.51
1764741168.420219,1.58
1764741168.4260778,1.59
1764741168.4323058,1.57
1764741168.438821,1.59
1764741168.444885,1.52
1764741168.4510589,1.62
1764741168.457301,1.6
1764741168.46375,1.59
1764741168.4699929,1.65
1764741168.476114,1.55
1764741168.482226,1.54
1764741168.488513,1.73
1764741168.49474,2.1
1764741168.5010839,2.82
1764741168.507206,3.06
1764741168.513463,2.78
1764741168.5201762,1.9
1764741168.526006,0.97
1764741168.53218,1.37
1764741168.538529,1.8
1764741168.544669,1.56
1764741168.551082,1.51
1764741168.557392,1.57
1764741168.563458,1.59
1764741168.569757,1.62
1764741168.5760279,1.54
1764741168.5821812,1.57
1764741168.588474,1.6
1764741168.5947268,1.56
1764741168.6010828,1.65
1764741168.6073549,1.63
1764741168.613512,1.55
1764741168.620492,1.64
1764741168.626017,1.63
1764741168.632264,1.66
1764741168.6486652,1.67
1764741168.651262,1.61
1764741168.654034,1.68
1764741168.6747231,1.68
1764741168.6814442,1.67
1764741168.681529,1.76
1764741168.681605,1.72
1764741168.689949,1.7
1764741168.690067,1.74
1764741168.695915,1.75
1764741168.701011,1.86
1764741168.7095628,1.78
1764741168.713398,1.74
1764741168.719625,1.84
1764741168.726048,1.77
1764741168.732188,1.76
1764741168.73837,1.83
1764741168.744659,1.75
1764741168.750887,1.75
1764741168.7571719,1.74
1764741168.7633972,1.7
1764741168.769881,1.71
1764741168.775957,1.62
1764741168.7821388,1.64
1764741168.788429,1.69
1764741168.794671,1.61
1764741168.800946,1.64
1764741168.8072672,1.58
1764741168.813523,1.54
1764741168.819953,1.61
1764741168.825975,1.57
1764741168.832219,1.63
1764741168.838445,1.67
1764741168.844691,1.54
1764741168.8508868,1.63
1764741168.85712,1.68
1764741168.863415,1.67
1764741168.869966,1.71
1764741168.875885,1.61
1764741168.882177,1.61
1764741168.888408,1.7
1764741168.894617,1.65
1764741168.900903,1.7
1764741168.907252,1.63
1764741168.913335,1.61
1764741168.919915,1.72
1764741168.925855,1.64
1764741168.932161,1.64
1764741168.938441,1.66
1764741168.944685,1.59
1764741168.9509609,1.66
1764741168.9571378,1.63
1764741168.963446,1.62
1764741168.969752,1.79
1764741168.9759529,1.76
1764741168.982131,1.73
1764741168.988409,1.81
1764741168.994576,1.88
1764741169.000892,1.94
1764741169.007191,1.83
1764741169.0133388,1.78
1764741169.0200121,1.85
1764741169.02585,1.63
1764741169.032222,1.58
1764741169.0383391,1.65
1764741169.0446131,1.54
1764741169.050934,1.54
1764741169.0572631,1.53
1764741169.0635,1.55
1764741169.070185,1.57
1764741169.0758982,1.5
1764741169.082134,1.58
1764741169.088416,1.58
1764741169.094625,1.48
1764741169.100845,1.61
1764741169.1072042,1.62
1764741169.113421,1.52
1764741169.119688,1.61
1764741169.125809,1.74
1764741169.132235,2.18
1764741169.138426,2.92
1764741169.1447082,3.04
1764741169.1508071,2.73
1764741169.157123,1.67
1764741169.1633532,1.01
1764741169.1696599,1.49
1764741169.1758301,1.65
1764741169.18207,1.58
1764741169.188363,1.53
1764741169.19457,1.51
1764741169.2008672,1.63
1764741169.207117,1.59
1764741169.213359,1.54
1764741169.219645,1.61
1764741169.2258298,1.58
1764741169.232044,1.6
1764741169.238346,1.63
1764741169.244587,1.6
1764741169.250989,1.65
1764741169.257191,1.6
1764741169.2633832,1.62
1764741169.269706,1.7
1764741169.275851,1.61
1764741169.282145,1.63
1764741169.288367,1.67
1764741169.294521,1.71
1764741169.3007932,1.76
1764741169.30707,1.65
1764741169.313292,1.68
1764741169.319597,1.78
1764741169.325817,1.73
1764741169.332156,1.73
1764741169.338318,1.76
1764741169.344633,1.74
1764741169.3507771,1.82
1764741169.357064,1.74
1764741169.363373,1.73
1764741169.3698628,1.83
1764741169.375873,1.74
1764741169.382174,1.74
1764741169.388273,1.73
1764741169.3945742,1.64
1764741169.400934,1.74
1764741169.407053,1.72
1764741169.4134011,1.62
1764741169.4199412,1.63
1764741169.425764,1.59
1764741169.43226,1.65
1764741169.438285,1.67
1764741169.444473,1.57
1764741169.4507551,1.62
1764741169.457004,1.58
1764741169.46334,1.6
1764741169.469825,1.68
1764741169.475838,1.59
1764741169.4824,1.61
1764741169.488374,1.62
1764741169.494593,1.61
1764741169.500795,1.7
1764741169.50707,1.63
1764741169.5133739,1.6
1764741169.51983,1.68
1764741169.525982,1.62
1764741169.532235,1.64
1764741169.538336,1.65
1764741169.544563,1.61
1764741169.550792,1.65
1764741169.557039,1.59
1764741169.563286,1.6
1764741169.569633,1.68
1764741169.575773,1.57
1764741169.5824,1.64
1764741169.5883782,1.73
1764741169.594562,1.69
1764741169.6009228,1.72
1764741169.607224,1.75
1764741169.613322,1.86
1764741169.619671,1.9
1764741169.625824,1.78
1764741169.6320472,1.81
1764741169.638422,1.81
1764741169.644415,1.61
1764741169.6508338,1.57
1764741169.657067,1.54
1764741169.66328,1.51
1764741169.669697,1.53
1764741169.675798,1.5
1764741169.6822138,1.52
1764741169.688274,1.52
1764741169.6946938,1.5
1764741169.7007701,1.55
1764741169.707214,1.5
1764741169.713304,1.53
1764741169.7196531,1.6
1764741169.7259278,1.51
1764741169.732578,1.53
1764741169.738635,1.56
1764741169.7445729,1.61
1764741169.750803,1.96
1764741169.757013,2.56
1764741169.763266,2.96
1764741169.769591,2.89
1764741169.775664,2.07
1764741169.781912,1.08
1764741169.788172,1.17
1764741169.794407,1.6
1764741169.800735,1.6
1764741169.806952,1.43
1764741169.8132749,1.48
1764741169.8196201,1.55
1764741169.825675,1.45
1764741169.8320599,1.51
1764741169.8382,1.52
1764741169.844456,1.48
1764741169.850815,1.55
1764741169.857051,1.51
1764741169.863342,1.52
1764741169.8695989,1.56
1764741169.875678,1.51
1764741169.8820622,1.59
1764741169.888417,1.6
1764741169.894473,1.53
1764741169.9007099,1.59
1764741169.9070568,1.57
1764741169.9132018,1.58
1764741169.919565,1.66
1764741169.9256902,1.57
1764741169.931987,1.58
1764741169.938117,1.66
1764741169.944402,1.65
1764741169.9506822,1.72
1764741169.957103,1.64
1764741169.963136,1.67
1764741169.9694579,1.78
1764741169.975729,1.66
1764741169.982016,1.67
1764741170.012827,1.74
1764741170.0379882,1.69
1764741170.0474958,1.72
1764741170.047571,1.63
1764741170.047671,1.6
1764741170.047745,1.69
1764741170.047814,1.6
1764741170.047883,1.58
1764741170.047966,1.57
1764741170.048032,1.53
1764741170.050646,1.6
1764741170.0568378,1.56
1764741170.0631099,1.55
1764741170.069483,1.59
1764741170.0756018,1.49
1764741170.0819788,1.55
1764741170.088133,1.6
1764741170.0944672,1.56
1764741170.100694,1.61
1764741170.1069498,1.56
1764741170.1131158,1.57
1764741170.119335,1.66
1764741170.1258938,1.57
1764741170.1320791,1.6
1764741170.138172,1.59
1764741170.144481,1.56
1764741170.15104,1.66
1764741170.1568482,1.57
1764741170.1631098,1.57
1764741170.169491,1.66
1764741170.175719,1.59
1764741170.181982,1.62
1764741170.18814,1.62
1764741170.194452,1.56
1764741170.201304,1.63
1764741170.20678,1.64
1764741170.213218,1.73
1764741170.219502,1.77
1764741170.225667,1.67
1764741170.2318661,1.84
1764741170.238164,1.93
1764741170.24444,1.8
1764741170.250562,1.78
1764741170.2569568,1.77
1764741170.2631948,1.7
1764741170.269585,1.58
1764741170.275775,1.51
1764741170.281908,1.58
1764741170.288199,1.53
1764741170.2944582,1.44
1764741170.3006332,1.52
1764741170.306815,1.49
1764741170.3130739,1.48
1764741170.3195798,1.52
1764741170.325709,1.43
1764741170.331881,1.54
1764741170.338153,1.55
1764741170.344337,1.46
1764741170.350843,1.52
1764741170.356807,1.49
1764741170.3630579,1.54
1764741170.369407,1.77
1764741170.3757188,2.29
1764741170.3820171,2.99
1764741170.3882701,2.96
1764741170.394472,2.33
1764741170.400599,1.31
1764741170.4068081,1.0
1764741170.4131122,1.48
1764741170.4194078,1.67
1764741170.425805,1.46
1764741170.431913,1.45
1764741170.438078,1.48
1764741170.444483,1.44
1764741170.450762,1.52
1764741170.456803,1.48
1764741170.462999,1.47
1764741170.469391,1.55
1764741170.4755561,1.51
1764741170.4818392,1.54
1764741170.488023,1.53
1764741170.494358,1.5
1764741170.5007339,1.58
1764741170.506757,1.54
1764741170.5130298,1.54
1764741170.519308,1.6
1764741170.525561,1.55
1764741170.531795,1.62
1764741170.538048,1.61
1764741170.544411,1.58
1764741170.551359,1.66
1764741170.556779,1.63
1764741170.5631518,1.66
1764741170.569671,1.7
1764741170.575572,1.68
1764741170.581782,1.78
1764741170.5880268,1.73
1764741170.594361,1.67
1764741170.6007712,1.75
1764741170.606851,1.72
1764741170.6130009,1.75
1764741170.619333,1.79
1764741170.6254861,1.67
1764741170.631828,1.69
1764741170.63808,1.72
1764741170.6442869,1.67
1764741170.650906,1.67
1764741170.656863,1.58
1764741170.6630158,1.65
1764741170.669277,1.69
1764741170.675561,1.56
1764741170.6817448,1.6
1764741170.687923,1.58
1764741170.6943,1.58
1764741170.7007391,1.7
1764741170.7067149,1.62
1764741170.7129862,1.6
1764741170.719249,1.65
1764741170.725557,1.59
1764741170.731785,1.67
1764741170.737966,1.68
1764741170.74425,1.63
1764741170.750773,1.71
1764741170.7567308,1.64
1764741170.763037,1.64
1764741170.769281,1.7
1764741170.7755678,1.66
1764741170.7817862,1.72
1764741170.7879858,1.7
1764741170.794218,1.63
1764741170.8006039,1.7
1764741170.80673,1.66
1764741170.812992,1.66
1764741170.819645,1.69
1764741170.825535,1.66
1764741170.831869,1.78
1764741170.8379679,1.79
1764741170.844311,1.72
1764741170.850692,1.82
1764741170.856714,1.92
1764741170.863122,1.96
1764741170.8692439,1.88
1764741170.875493,1.79
1764741170.8817909,1.91
1764741170.887984,1.75
1764741170.894222,1.55
1764741170.90104,1.62
1764741170.9069068,1.58
1764741170.913036,1.54
1764741170.919252,1.54
1764741170.925449,1.51
1764741170.9316978,1.62
1764741170.9379919,1.58
1764741170.9441762,1.5
1764741170.950725,1.59
1764741170.956654,1.56
1764741170.9629812,1.56
1764741170.9692109,1.58
1764741170.975422,1.5
1764741170.981768,1.56
1764741170.987979,1.65
1764741170.994293,1.79
1764741171.0008051,2.45
1764741171.006709,3.03
1764741171.012893,2.98
1764741171.0192,2.38
1764741171.025502,1.15
1764741171.0317929,1.09
1764741171.037995,1.68
1764741171.0442739,1.61
1764741171.051234,1.48
1764741171.056812,1.49
1764741171.062916,1.57
1764741171.06922,1.57
1764741171.075417,1.48
1764741171.081738,1.54
1764741171.087997,1.56
1764741171.094208,1.52
1764741171.100757,1.56
1764741171.1067798,1.52
1764741171.113078,1.58
1764741171.119253,1.6
1764741171.125495,1.5
1764741171.1317298,1.6
1764741171.137953,1.61
1764741171.144208,1.57
1764741171.150868,1.63
1764741171.1566348,1.57
1764741171.16292,1.61
1764741171.1692102,1.66
1764741171.1753888,1.6
1764741171.181731,1.68
1764741171.187913,1.67
1764741171.194219,1.64
1764741171.2007968,1.74
1764741171.2067032,1.72
1764741171.2129102,1.72
1764741171.219303,1.75
1764741171.225457,1.66
1764741171.231662,1.72
1764741171.237931,1.74
1764741171.244111,1.68
1764741171.250557,1.71
1764741171.256693,1.64
1764741171.262892,1.65
1764741171.269181,1.64
1764741171.275404,1.53
1764741171.2816849,1.59
1764741171.287959,1.57
1764741171.294241,1.52
1764741171.300473,1.59
1764741171.335058,1.53
1764741171.340755,1.5
1764741171.341356,1.52
1764741171.353049,1.51
1764741171.353191,1.59
1764741171.353322,1.54
1764741171.3673742,1.53
1764741171.367711,1.62
1764741171.367917,1.53
1764741171.368112,1.53
1764741171.372273,1.62
1764741171.375375,1.58
1764741171.383224,1.6
1764741171.387965,1.59
1764741171.394208,1.56
1764741171.400504,1.61
1764741171.406604,1.56
1764741171.412849,1.57
1764741171.419088,1.56
1764741171.4254432,1.51
1764741171.431613,1.6
1764741171.437958,1.59
1764741171.444277,1.52
1764741171.450439,1.53
1764741171.4566422,1.52
1764741171.462873,1.59
1764741171.4691021,1.57
1764741171.475391,1.52
1764741171.481577,1.66
1764741171.487871,1.67
1764741171.494069,1.6
1764741171.5006132,1.78
1764741171.506572,1.79
1764741171.5128572,1.77
1764741171.519093,1.72
1764741171.525391,1.67
1764741171.531598,1.63
1764741171.537879,1.44
1764741171.544082,1.46
1764741171.550494,1.52
1764741171.556659,1.33
1764741171.5629492,1.35
1764741171.569115,1.48
1764741171.575406,1.39
1764741171.581603,1.39
1764741171.5878751,1.35
1764741171.594066,1.34
1764741171.600441,1.42
1764741171.606661,1.36
1764741171.612889,1.38
1764741171.619165,1.4
1764741171.625317,1.31
1764741171.6317902,1.42
1764741171.637899,1.61
1764741171.644076,2.12
1764741171.65049,2.8
1764741171.656847,2.78
1764741171.663156,2.24
1764741171.6692638,1.09
1764741171.6753962,0.71
1764741171.681705,1.39
1764741171.687871,1.49
1764741171.694054,1.21
1764741171.7004218,1.25
1764741171.706618,1.3
1764741171.712826,1.31
1764741171.719035,1.29
1764741171.725322,1.25
1764741171.731554,1.34
1764741171.7378728,1.3
1764741171.744098,1.24
1764741171.750478,1.37
1764741171.756502,1.32
1764741171.7629151,1.33
1764741171.769036,1.35
1764741171.77532,1.3
1764741171.781854,1.38
1764741171.787804,1.38
1764741171.794081,1.37
1764741171.8005571,1.42
1764741171.806655,1.37
1764741171.81297,1.43
1764741171.819105,1.48
1764741171.82537,1.4
1764741171.8318279,1.48
1764741171.8377988,1.5
1764741171.8440619,1.48
1764741171.850407,1.52
1764741171.856462,1.52
1764741171.862775,1.54
1764741171.869051,1.52
1764741171.875316,1.48
1764741171.881593,1.57
1764741171.887744,1.54
1764741171.894043,1.5
1764741171.9004328,1.52
1764741171.9066381,1.47
1764741171.9128199,1.48
1764741171.9190521,1.49
1764741171.925353,1.4
1764741171.931702,1.47
1764741171.937888,1.45
1764741171.9440799,1.38
1764741171.9504058,1.47
1764741171.956652,1.43
1764741171.9628391,1.45
1764741171.9693031,1.5
1764741171.975418,1.45
1764741171.981554,1.51
1764741171.987814,1.48
1764741171.994148,1.46
1764741172.0004008,1.54
1764741172.0066218,1.5
1764741172.012992,1.51
1764741172.0191941,1.54
1764741172.025373,1.5
1764741172.031577,1.54
1764741172.037858,1.52
1764741172.0440168,1.53
1764741172.050522,1.58
1764741172.0564978,1.52
1764741172.062925,1.55
1764741172.069073,1.54
1764741172.075286,1.52
1764741172.081455,1.6
1764741172.087761,1.52
1764741172.093964,1.49
1764741172.100437,1.57
1764741172.106534,1.51
1764741172.112826,1.52
1764741172.118998,1.54
1764741172.125312,1.55
1764741172.1315498,1.68
1764741172.137801,1.65
1764741172.144078,1.62
1764741172.151005,1.79
1764741172.156686,1.82
1764741172.162951,1.82
1764741172.169205,1.75
1764741172.175346,1.72
1764741172.1814961,1.74
1764741172.187996,1.55
1764741172.194241,1.5
1764741172.200423,1.55
1764741172.206483,1.43
1764741172.212969,1.48
1764741172.219152,1.48
1764741172.225305,1.45
1764741172.231511,1.56
1764741172.2377448,1.48
1764741172.243978,1.43
1764741172.250452,1.54
1764741172.256463,1.48
1764741172.262773,1.49
1764741172.2690492,1.49
1764741172.275115,1.44
1764741172.2815528,1.58
1764741172.287658,1.7
1764741172.2939289,2.16
1764741172.300425,2.94
1764741172.3064718,2.97
1764741172.312714,2.45
1764741172.319028,1.3
1764741172.3252301,0.87
1764741172.331435,1.52
1764741172.33775,1.67
1764741172.3438709,1.44
1764741172.350355,1.46
1764741172.3564448,1.44
1764741172.362925,1.52
1764741172.370125,1.53
1764741172.375316,1.45
1764741172.382117,1.52
1764741172.387808,1.5
1764741172.3939562,1.46
1764741172.400331,1.55
1764741172.406423,1.52
1764741172.412703,1.52
1764741172.419005,1.52
1764741172.425208,1.51
1764741172.43156,1.59
1764741172.43812,1.56
1764741172.443851,1.54
1764741172.450491,1.63
1764741172.456331,1.57
1764741172.46265,1.6
1764741172.468917,1.66
1764741172.4751449,1.64
1764741172.481697,1.68
1764741172.487678,1.64
1764741172.4939678,1.64
1764741172.500322,1.76
1764741172.5064561,1.68
1764741172.512861,1.68
1764741172.518949,1.7
1764741172.525194,1.69
1764741172.53142,1.74
1764741172.53766,1.65
1764741172.544021,1.64
1764741172.550291,1.73
1764741172.556448,1.63
1764741172.562687,1.62
1764741172.569099,1.61
1764741172.575211,1.56
1764741172.581503,1.63
1764741172.5877,1.59
1764741172.593903,1.55
1764741172.600227,1.62
1764741172.6064131,1.55
1764741172.6127942,1.58
1764741172.632859,1.6
1764741172.649972,1.54
1764741172.6501231,1.6
1764741172.650271,1.6
1764741172.650439,1.6
1764741172.667129,1.63
1764741172.667279,1.58
1764741172.667404,1.64
1764741172.68294,1.63
1764741172.683411,1.57
1764741172.683647,1.64
1764741172.6885629,1.62
1764741172.693801,1.61
1764741172.7001758,1.66
1764741172.706512,1.57
1764741172.712707,1.61
1764741172.718799,1.64
1764741172.72507,1.59
1764741172.731523,1.66
1764741172.73756,1.6
1764741172.7438028,1.6
1764741172.75013,1.64
1764741172.756414,1.59
1764741172.762631,1.62
1764741172.768893,1.61
1764741172.7750971,1.58
1764741172.7813451,1.63
1764741172.787571,1.57
1764741172.79394,1.55
1764741172.8001668,1.7
1764741172.806321,1.72
1764741172.8125901,1.74
1764741172.818857,1.7
1764741172.825116,1.77
1764741172.8314612,1.95
1764741172.837624,1.86
1764741172.843817,1.77
1764741172.8505542,1.84
1764741172.856398,1.66
1764741172.862803,1.55
1764741172.868914,1.58
1764741172.875198,1.52
1764741172.881325,1.56
1764741172.887666,1.48
1764741172.893847,1.47
1764741172.9003441,1.55
1764741172.906293,1.47
1764741172.912724,1.5
1764741172.9188852,1.55
1764741172.925107,1.49
1764741172.931301,1.53
1764741172.937557,1.49
1764741172.943842,1.48
1764741172.9505122,1.52
1764741172.956415,1.58
1764741172.9626539,1.96
1764741172.9689002,2.63
1764741172.975211,2.95
1764741172.982581,2.8
1764741172.9875991,1.82
1764741172.993956,0.89
1764741173.000248,1.25
1764741173.0064268,1.64
1764741173.0125508,1.59
1764741173.018861,1.43
1764741173.025055,1.42
1764741173.031304,1.54
1764741173.037523,1.5
1764741173.0438101,1.46
1764741173.050123,1.52
1764741173.0563142,1.51
1764741173.062579,1.54
1764741173.0687518,1.54
1764741173.0750341,1.49
1764741173.081558,1.55
1764741173.08754,1.52
1764741173.093826,1.57
1764741173.100019,1.58
1764741173.106251,1.51
1764741173.112552,1.61
1764741173.1189382,1.6
1764741173.1250181,1.55
1764741173.131407,1.65
1764741173.137557,1.59
1764741173.143882,1.59
1764741173.149962,1.65
1764741173.156342,1.61
1764741173.1624691,1.7
1764741173.168843,1.72
1764741173.175064,1.65
1764741173.181736,1.72
1764741173.1875358,1.67
1764741173.1937668,1.66
1764741173.20014,1.71
1764741173.206303,1.64
1764741173.212647,1.68
1764741173.2188852,1.65
1764741173.2250319,1.6
1764741173.231328,1.66
1764741173.237469,1.6
1764741173.2438211,1.61
1764741173.2502022,1.62
1764741173.2563388,1.52
1764741173.262507,1.58
1764741173.268967,1.57
1764741173.27507,1.52
1764741173.281377,1.59
1764741173.2875469,1.54
1764741173.293758,1.56
1764741173.300137,1.62
1764741173.306185,1.54
1764741173.3124921,1.57
1764741173.318739,1.57
1764741173.3249888,1.57
1764741173.331594,1.63
1764741173.33761,1.58
1764741173.343713,1.59
1764741173.350098,1.64
1764741173.356208,1.56
1764741173.362588,1.59
1764741173.368889,1.59
1764741173.3750331,1.55
1764741173.381966,1.62
1764741173.387586,1.58
1764741173.393868,1.57
1764741173.4001112,1.61
1764741173.406223,1.54
1764741173.4125922,1.57
1764741173.418821,1.57
1764741173.425002,1.53
1764741173.431901,1.58
1764741173.437526,1.53
1764741173.44392,1.54
1764741173.450252,1.6
1764741173.4563022,1.54
1764741173.462487,1.59
1764741173.4688158,1.57
1764741173.47497,1.51
1764741173.4813151,1.6
1764741173.487652,1.66
1764741173.493712,1.7
1764741173.500077,1.69
1764741173.506179,1.65
1764741173.5124228,1.84
1764741173.518666,1.85
1764741173.525002,1.75
1764741173.53142,1.79
1764741173.5375302,1.71
1764741173.543777,1.57
1764741173.549954,1.55
1764741173.5562081,1.5
1764741173.562477,1.51
1764741173.5686662,1.46
1764741173.574912,1.43
1764741173.5816991,1.49
1764741173.587459,1.41
1764741173.5937312,1.41
1764741173.5999339,1.48
1764741173.606107,1.42
1764741173.612415,1.48
1764741173.618609,1.44
1764741173.624932,1.36
1764741173.631356,1.46
1764741173.637454,1.49
1764741173.643667,1.69
1764741173.649939,2.26
1764741173.6562922,2.82
1764741173.662441,2.83
1764741173.668819,2.27
1764741173.674876,1.12
1764741173.68121,0.95
1764741173.687516,1.42
1764741173.6936471,1.53
1764741173.700195,1.42
1764741173.706155,1.28
1764741173.712489,1.4
1764741173.718684,1.39
1764741173.7249658,1.31
1764741173.731217,1.38
1764741173.737438,1.34
1764741173.7436569,1.36
1764741173.750335,1.39
1764741173.756166,1.32
1764741173.762424,1.41
1764741173.7687218,1.38
1764741173.775093,1.36
1764741173.781836,1.43
1764741173.7874718,1.37
1764741173.793696,1.4
1764741173.8002188,1.45
1764741173.806156,1.38
1764741173.812501,1.42
1764741173.818779,1.38
1764741173.825139,1.38
1764741173.831254,1.5
1764741173.837468,1.44
1764741173.843633,1.44
1764741173.849949,1.49
1764741173.856172,1.43
1764741173.862371,1.5
1764741173.8686972,1.44
1764741173.874911,1.42
1764741173.8814368,1.5
1764741173.887527,1.41
1764741173.893648,1.41
1764741173.899938,1.43
1764741173.9061491,1.32
1764741173.91238,1.38
1764741173.9187021,1.35
1764741173.924809,1.29
1764741173.931372,1.31
1764741173.937377,1.24
1764741173.943712,1.26
1764741173.949847,1.29
1764741173.956115,1.21
1764741173.9623418,1.25
1764741173.96974,1.24
1764741173.9844108,1.22
1764741173.984697,1.29
1764741173.9955242,1.23
1764741174.0317838,1.26
1764741174.032167,1.27
1764741174.032251,1.19
1764741174.032361,1.27
1764741174.032481,1.19
1764741174.032544,1.19
1764741174.0326002,1.33
1764741174.0375218,1.26
1764741174.043541,1.25
1764741174.049887,1.28
1764741174.056156,1.23
1764741174.06234,1.3
1764741174.068691,1.28
1764741174.0749261,1.25
1764741174.0813498,1.3
1764741174.087302,1.23
1764741174.093747,1.25
1764741174.099874,1.28
1764741174.106061,1.27
1764741174.112396,1.31
1764741174.1185658,1.25
1764741174.1248782,1.17
1764741174.131528,1.28
1764741174.137677,1.31
1764741174.143717,1.37
1764741174.149827,1.41
1764741174.156088,1.33
1764741174.162324,1.45
1764741174.168593,1.56
1764741174.174847,1.55
1764741174.1811771,1.54
1764741174.187422,1.43
1764741174.193779,1.42
1764741174.200008,1.32
1764741174.206035,1.17
1764741174.212298,1.28
1764741174.2186291,1.25
1764741174.2249322,1.14
1764741174.231162,1.21
1764741174.237366,1.2
1764741174.243635,1.22
1764741174.249884,1.21
1764741174.256001,1.15
1764741174.262401,1.27
1764741174.2686841,1.26
1764741174.274786,1.21
1764741174.281764,1.22
1764741174.2873678,1.18
1764741174.293597,1.34
1764741174.2998312,1.6
1764741174.306048,2.16
1764741174.3123488,2.73
1764741174.318599,2.61
1764741174.324901,1.84
1764741174.33152,0.83
1764741174.3373802,0.79
1764741174.343641,1.39
1764741174.3498828,1.4
1764741174.356066,1.13
1764741174.362401,1.24
1764741174.3685272,1.31
1764741174.3749518,1.26
1764741174.3811462,1.3
1764741174.387367,1.24
1764741174.3936481,1.28
1764741174.399862,1.32
1764741174.406015,1.29
1764741174.412283,1.37
1764741174.4186509,1.33
1764741174.4248378,1.3
1764741174.431246,1.37
1764741174.4371898,1.33
1764741174.443746,1.37
1764741174.449832,1.4
1764741174.4560032,1.39
1764741174.462326,1.48
1764741174.468547,1.48
1764741174.4747279,1.47
1764741174.481125,1.55
1764741174.487303,1.52
1764741174.493551,1.58
1764741174.499846,1.61
1764741174.506062,1.52
1764741174.5122619,1.67
1764741174.518453,1.64
1764741174.524975,1.59
1764741174.531071,1.71
1764741174.537347,1.67
1764741174.5434911,1.7
1764741174.549781,1.7
1764741174.5562592,1.62
1764741174.562455,1.71
1764741174.5689752,1.68
1764741174.574872,1.64
1764741174.580995,1.7
1764741174.587329,1.58
1764741174.593517,1.61
1764741174.5997062,1.69
1764741174.606036,1.66
1764741174.612192,1.68
1764741174.618411,1.65
1764741174.6247559,1.67
1764741174.631139,1.72
1764741174.637248,1.67
1764741174.6435158,1.74
1764741174.649678,1.74
1764741174.655902,1.66
1764741174.6621609,1.77
1764741174.668394,1.73
1764741174.674709,1.73
1764741174.680894,1.83
1764741174.687197,1.74
1764741174.6935658,1.74
1764741174.699695,1.75
1764741174.706029,1.73
1764741174.713131,1.81
1764741174.718416,1.77
1764741174.724756,1.74
1764741174.731019,1.81
1764741174.737237,1.73
1764741174.743453,1.77
1764741174.74973,1.8
1764741174.755945,1.73
1764741174.762196,1.79
1764741174.768362,1.75
1764741174.774709,1.84
1764741174.781091,1.92
1764741174.7872279,1.79
1764741174.793511,1.96
1764741174.799673,2.08
1764741174.806029,1.96
1764741174.8122702,1.97
1764741174.8183901,1.93
1764741174.824733,1.87
1764741174.831125,1.74
1764741174.837193,1.61
1764741174.843411,1.71
1764741174.849615,1.68
1764741174.855855,1.57
1764741174.862231,1.63
1764741174.868376,1.57
1764741174.874711,1.56
1764741174.880956,1.67
1764741174.887272,1.6
1764741174.893412,1.62
1764741174.899657,1.63
1764741174.905823,1.59
1764741174.912123,1.6
1764741174.9183512,1.57
1764741174.924653,1.66
1764741174.930963,1.92
1764741174.93722,2.51
1764741174.943357,3.1
1764741174.949672,2.98
1764741174.955938,2.15
1764741174.962147,1.1
1764741174.968382,1.13
1764741174.974772,1.59
1764741174.981049,1.62
1764741174.9871879,1.44
1764741174.993357,1.49
1764741174.999609,1.5
1764741175.005928,1.43
1764741175.012182,1.54
1764741175.018402,1.42
1764741175.024608,1.45
1764741175.031071,1.55
1764741175.037302,1.42
1764741175.0434089,1.45
1764741175.049599,1.48
1764741175.0559192,1.46
1764741175.0621371,1.51
1764741175.06833,1.41
1764741175.074571,1.44
1764741175.080866,1.52
1764741175.08715,1.46
1764741175.093308,1.52
1764741175.0996091,1.52
1764741175.105818,1.45
1764741175.112098,1.53
1764741175.1183329,1.52
1764741175.124778,1.55
1764741175.130908,1.6
1764741175.1374452,1.5
1764741175.14332,1.58
1764741175.149605,1.64
1764741175.155802,1.52
1764741175.162106,1.59
1764741175.168333,1.57
1764741175.174699,1.58
1764741175.181076,1.58
1764741175.187314,1.5
1764741175.1933818,1.6
1764741175.199628,1.54
1764741175.2058308,1.42
1764741175.2296908,1.49
1764741175.229825,1.47
1764741175.2299159,1.48
1764741175.230876,1.49
1764741175.2603252,1.38
1764741175.260405,1.49
1764741175.260468,1.48
1764741175.2605288,1.37
1764741175.262379,1.49
1764741175.268806,1.44
1764741175.274631,1.44
1764741175.281176,1.48
1764741175.2872488,1.39
1764741175.293443,1.46
1764741175.299593,1.46
1764741175.305782,1.44
1764741175.312216,1.53
1764741175.3184671,1.42
1764741175.3246222,1.41
1764741175.331058,1.47
1764741175.337292,1.41
1764741175.3433752,1.51
1764741175.349598,1.48
1764741175.355881,1.4
1764741175.362147,1.48
1764741175.368238,1.43
1764741175.3746061,1.47
1764741175.380894,1.48
1764741175.387153,1.41
1764741175.393343,1.49
1764741175.3994932,1.55
1764741175.405806,1.53
1764741175.4122539,1.6
1764741175.4183428,1.6
1764741175.424667,1.76
1764741175.430808,1.83
1764741175.437187,1.65
1764741175.443386,1.68
1764741175.44961,1.68
1764741175.4558332,1.51
1764741175.462115,1.5
1764741175.4682722,1.46
1764741175.474684,1.42
1764741175.4809432,1.43
1764741175.4871838,1.39
1764741175.493488,1.46
1764741175.499512,1.46
1764741175.5059662,1.42
1764741175.512173,1.49
1764741175.5183659,1.44
1764741175.524631,1.48
1764741175.530954,1.53
1764741175.537062,1.48
1764741175.5433338,1.49
1764741175.5495439,1.51
1764741175.555786,1.67
1764741175.562067,2.28
1764741175.568205,2.9
1764741175.57449,2.95
1764741175.5808551,2.61
1764741175.58707,1.44
1764741175.593348,0.99
1764741175.5995111,1.5
1764741175.6057441,1.68
1764741175.6120179,1.57
1764741175.61824,1.45
1764741175.6245902,1.56
1764741175.63082,1.61
1764741175.6371121,1.52
1764741175.643299,1.61
1764741175.649559,1.58
1764741175.655761,1.53
1764741175.662029,1.65
1764741175.668233,1.63
1764741175.674561,1.63
1764741175.680821,1.64
1764741175.6870751,1.57
1764741175.6934452,1.68
1764741175.69959,1.68
1764741175.7057421,1.64
1764741175.712033,1.71
1764741175.718178,1.65
1764741175.724562,1.7
1764741175.730755,1.74
1764741175.737021,1.67
1764741175.7432551,1.76
1764741175.749525,1.78
1764741175.7557912,1.73
1764741175.76208,1.81
1764741175.7682712,1.76
1764741175.774605,1.79
1764741175.7808561,1.84
1764741175.787075,1.78
1764741175.79332,1.84
1764741175.7994912,1.8
1764741175.8057442,1.76
1764741175.812053,1.85
1764741175.818174,1.77
1764741175.824491,1.74
1764741175.8307378,1.78
1764741175.837023,1.74
1764741175.8432698,1.75
1764741175.8495202,1.72
1764741175.8557608,1.7
1764741175.862208,1.76
1764741175.8681831,1.7
1764741175.874454,1.72
1764741175.880749,1.77
1764741175.887106,1.68
1764741175.893256,1.75
1764741175.899544,1.76
1764741175.90571,1.72
1764741175.912243,1.79
1764741175.91814,1.76
1764741175.9245062,1.76
1764741175.9307892,1.82
1764741175.9370391,1.75
1764741175.943222,1.79
1764741175.9494631,1.77
1764741175.955702,1.78
1764741175.962125,1.83
1764741175.968197,1.75
1764741175.974472,1.78
1764741175.980746,1.81
1764741175.9871,1.71
1764741175.993222,1.8
1764741175.999403,1.79
1764741176.0056498,1.73
1764741176.012049,1.86
1764741176.018132,1.87
1764741176.024553,1.84
1764741176.032011,1.9
1764741176.03701,1.98
1764741176.043298,2.07
1764741176.049518,1.96
1764741176.05566,1.89
1764741176.0628622,2.0
1764741176.068278,1.81
1764741176.0744488,1.7
1764741176.080786,1.75
1764741176.087072,1.68
1764741176.093222,1.74
1764741176.099317,1.71
1764741176.1057029,1.65
1764741176.112464,1.73
1764741176.118177,1.65
1764741176.124521,1.71
1764741176.1307871,1.8
1764741176.137019,1.71
1764741176.143161,1.76
1764741176.149367,1.73
1764741176.155678,1.68
1764741176.162055,1.8
1764741176.1682801,1.85
1764741176.174439,2.19
1764741176.180672,2.94
1764741176.186943,3.15
1764741176.1932,3.11
1764741176.199466,2.3
1764741176.205719,1.23
1764741176.212652,1.47
1764741176.218354,1.83
1764741176.224397,1.74
1764741176.230706,1.7
1764741176.2369761,1.71
1764741176.2431612,1.79
1764741176.249422,1.73
1764741176.255641,1.7
1764741176.262103,1.81
1764741176.268218,1.74
1764741176.274385,1.76
1764741176.280842,1.82
1764741176.286898,1.75
1764741176.293133,1.85
1764741176.299291,1.86
1764741176.3056881,1.8
1764741176.312084,1.82
1764741176.318209,1.81
1764741176.3244202,1.89
1764741176.3307352,1.93
1764741176.3369029,1.84
1764741176.343148,1.89
1764741176.349397,1.89
1764741176.3556721,1.93
1764741176.362219,2.01
1764741176.3680372,1.92
1764741176.374366,1.97
1764741176.38065,2.02
1764741176.386889,1.95
1764741176.39308,2.02
1764741176.399353,1.97
1764741176.405674,1.96
1764741176.412509,2.02
1764741176.418017,1.93
1764741176.424334,1.98
1764741176.4307399,2.03
1764741176.436867,1.89
1764741176.443095,1.95
1764741176.449364,1.92
1764741176.4556632,1.9
1764741176.462003,1.96
1764741176.468195,1.84
1764741176.4744399,1.86
1764741176.480574,1.9
1764741176.486836,1.8
1764741176.493099,1.9
1764741176.499282,1.91
1764741176.505558,1.85
1764741176.5119438,1.92
1764741176.518047,1.87
1764741176.524466,1.9
1764741176.530564,1.93
1764741176.537426,1.86
1764741176.543135,1.95
1764741176.549406,1.92
1764741176.5555258,1.89
1764741176.56222,1.93
1764741176.5689988,1.9
1764741176.585593,1.97
1764741176.5857432,1.96
1764741176.60214,1.9
1764741176.602368,1.96
1764741176.602508,1.91
1764741176.611628,1.92
1764741176.629193,1.98
1764741176.6293619,1.94
1764741176.6294348,2.06
1764741176.630535,2.11
1764741176.639029,1.98
1764741176.643283,2.12
1764741176.649367,2.27
1764741176.655623,2.2
1764741176.661869,2.18
1764741176.668131,2.11
1764741176.67428,2.15
1764741176.680485,2.05
1764741176.686871,1.85
1764741176.693025,1.94
1764741176.699271,1.9
1764741176.7055628,1.79
1764741176.7119622,1.85
1764741176.718011,1.84
1764741176.724292,1.87
1764741176.730525,1.85
1764741176.7368882,1.76
1764741176.743051,1.81
1764741176.749334,1.79
1764741176.755528,1.76
1764741176.762104,1.83
1764741176.768098,1.72
1764741176.774313,1.75
1764741176.780603,1.91
1764741176.786825,2.24
1764741176.793026,2.98
1764741176.7992861,3.11
1764741176.8054929,2.79
1764741176.812046,1.83
1764741176.818026,1.01
1764741176.824283,1.42
1764741176.830511,1.76
1764741176.836857,1.53
1764741176.8430872,1.5
1764741176.8492138,1.51
1764741176.8555388,1.49
1764741176.861928,1.52
1764741176.868043,1.42
1764741176.874239,1.45
1764741176.880505,1.44
1764741176.88701,1.35
1764741176.893151,1.44
1764741176.8995242,1.39
1764741176.90551,1.3
1764741176.911814,1.39
1764741176.91798,1.34
1764741176.92419,1.3
1764741176.930518,1.3
1764741176.936886,1.28
1764741176.943081,1.34
1764741176.9492428,1.24
1764741176.955521,1.22
1764741176.961817,1.28
1764741176.967965,1.18
1764741176.974317,1.23
1764741176.9805682,1.28
1764741176.986874,1.18
1764741176.9929311,1.21
1764741176.999385,1.18
1764741177.0055768,1.16
1764741177.01199,1.19
1764741177.01794,1.07
1764741177.024223,1.16
1764741177.03075,1.14
