timestamp,ecg_value
1762880166.44618,1.59
1762880166.452449,1.44
1762880166.458446,1.29
1762880166.464694,1.22
1762880166.4709382,1.3
1762880166.4771478,1.46
1762880166.483279,1.62
1762880166.489546,1.71
1762880166.496174,1.65
1762880166.501924,1.5
1762880166.508291,1.33
1762880166.514604,1.24
1762880166.520743,1.27
1762880166.527571,1.41
1762880166.53322,1.58
1762880166.5395288,1.69
1762880166.545843,1.66
1762880166.55207,1.24
1762880166.5583732,1.59
1762880166.564509,1.49
1762880166.570833,1.28
1762880166.577101,1.74
1762880166.583317,1.33
1762880166.58947,1.45
1762880166.595956,1.75
1762880166.6019661,1.26
1762880166.608376,1.62
1762880166.614462,1.57
1762880166.620811,1.34
1762880166.627172,1.73
1762880166.633295,1.37
1762880166.639824,1.5
1762880166.645727,1.72
1762880166.6520278,1.28
1762880166.658262,1.64
1762880166.6645708,1.54
1762880166.670791,1.35
1762880166.677034,1.76
1762880166.683245,1.38
1762880166.690976,1.48
1762880166.695851,1.71
1762880166.702214,1.26
1762880166.7084439,1.65
1762880166.7145422,1.59
1762880166.720843,1.34
1762880166.7271612,1.71
1762880166.733502,1.39
1762880166.7395241,1.51
1762880166.745777,1.7
1762880166.752269,1.26
1762880166.758999,1.69
1762880166.7644641,1.63
1762880166.770742,1.4
1762880166.7771,1.86
1762880166.78318,1.5
1762880166.78949,1.64
1762880166.795815,1.97
1762880166.802006,1.51
1762880166.8084989,1.74
1762880166.814532,1.68
1762880166.820728,1.48
1762880166.827023,1.79
1762880166.833329,1.38
1762880166.839741,1.47
1762880166.8458261,1.67
1762880166.85198,1.22
1762880166.8587232,1.62
1762880166.864735,1.55
1762880166.870753,1.28
1762880166.877113,1.68
1762880166.883462,1.32
1762880166.889854,1.45
1762880166.8958058,1.7
1762880166.901921,1.27
1762880166.908256,1.61
1762880166.914559,1.53
1762880166.920743,1.35
1762880166.926989,1.78
1762880166.933219,1.41
1762880166.940862,1.49
1762880166.9457831,1.76
1762880166.952227,1.49
1762880166.958316,2.14
1762880166.964517,2.77
1762880166.971029,3.16
1762880166.976966,3.17
1762880166.983223,3.17
1762880166.990216,2.93
1762880166.9957418,1.12
1762880167.001903,0.76
1762880167.008176,1.96
1762880167.01458,1.7
1762880167.02076,1.15
1762880167.0272372,1.67
1762880167.0331788,1.39
1762880167.0395782,1.39
1762880167.0457752,1.63
1762880167.0521579,1.28
1762880167.058225,1.6
1762880167.064727,1.52
1762880167.070773,1.32
1762880167.0770571,1.73
1762880167.083361,1.31
1762880167.089654,1.44
1762880167.095758,1.73
1762880167.102119,1.29
1762880167.108223,1.67
1762880167.114649,1.62
1762880167.1207879,1.36
1762880167.127179,1.8
1762880167.133332,1.46
1762880167.1395369,1.56
1762880167.145836,1.84
1762880167.152201,1.42
1762880167.158292,1.8
1762880167.165168,1.74
1762880167.171133,1.49
1762880167.177118,1.94
1762880167.1831958,1.65
1762880167.190063,1.77
1762880167.195714,2.0
1762880167.2020538,1.55
1762880167.2081869,1.96
1762880167.214404,1.9
1762880167.2206872,1.63
1762880167.226978,2.12
1762880167.233218,1.74
1762880167.239556,1.71
1762880167.245653,1.96
1762880167.252206,1.5
1762880167.2580822,1.77
1762880167.264339,1.62
1762880167.270666,1.33
1762880167.311081,1.7
1762880167.323584,1.31
1762880167.343321,1.42
1762880167.343925,1.67
1762880167.344033,1.19
1762880167.344084,1.55
1762880167.3441339,1.47
1762880167.3441868,1.23
1762880167.344247,1.64
1762880167.344318,1.29
1762880167.344377,1.4
1762880167.345631,1.63
1762880167.3547158,1.2
1762880167.359694,1.58
1762880167.364346,1.51
1762880167.370739,1.25
1762880167.376833,1.7
1762880167.383182,1.32
1762880167.389368,1.39
1762880167.395725,1.67
1762880167.401817,1.28
1762880167.408106,1.63
1762880167.414361,1.53
1762880167.420722,1.29
1762880167.426791,1.73
1762880167.433074,1.39
1762880167.439372,1.49
1762880167.4455922,1.69
1762880167.45189,1.26
1762880167.4582772,1.62
1762880167.4642198,1.54
1762880167.4706602,1.26
1762880167.476914,1.72
1762880167.482993,1.38
1762880167.489394,1.44
1762880167.495584,1.69
1762880167.502281,1.25
1762880167.5081532,1.58
1762880167.514344,1.54
1762880167.5205991,1.33
1762880167.526894,1.73
1762880167.533115,1.39
1762880167.539375,1.55
1762880167.545567,1.82
1762880167.5518641,1.31
1762880167.558083,1.72
1762880167.5642931,1.79
1762880167.5709498,1.55
1762880167.576962,1.9
1762880167.583195,1.51
1762880167.589403,1.59
1762880167.5955431,1.77
1762880167.602342,1.3
1762880167.608116,1.62
1762880167.614308,1.51
1762880167.620739,1.22
1762880167.626965,1.63
1762880167.633057,1.3
1762880167.639315,1.36
1762880167.6455271,1.62
1762880167.651825,1.23
1762880167.658049,1.58
1762880167.664333,1.49
1762880167.670586,1.24
1762880167.676835,1.67
1762880167.683022,1.33
1762880167.689357,1.42
1762880167.6955168,1.68
1762880167.7020748,1.27
1762880167.70809,1.64
1762880167.7142808,1.57
1762880167.720544,1.32
1762880167.726819,1.87
1762880167.733045,1.81
1762880167.739368,2.64
1762880167.7455401,3.17
1762880167.7519512,3.17
1762880167.75804,3.17
1762880167.764263,2.83
1762880167.7706308,0.87
1762880167.777011,1.29
1762880167.7831318,1.57
1762880167.789309,1.53
1762880167.7956119,1.53
1762880167.8022861,1.17
1762880167.808309,1.61
1762880167.8144388,1.48
1762880167.82062,1.17
1762880167.8268049,1.65
1762880167.83318,1.34
1762880167.839514,1.39
1762880167.845689,1.64
1762880167.852073,1.23
1762880167.858091,1.58
1762880167.864278,1.54
1762880167.870955,1.3
1762880167.876837,1.71
1762880167.8830369,1.39
1762880167.889271,1.47
1762880167.895482,1.7
1762880167.901912,1.33
1762880167.9083729,1.73
1762880167.914273,1.64
1762880167.920692,1.36
1762880167.926851,1.83
1762880167.933023,1.53
1762880167.939253,1.61
1762880167.9455638,1.87
1762880167.951712,1.46
1762880167.9580202,1.86
1762880167.964309,1.82
1762880167.970527,1.6
1762880167.976759,2.02
1762880167.9830148,1.66
1762880167.9893079,1.75
1762880167.995471,2.05
1762880168.0017338,1.59
1762880168.0081332,1.93
1762880168.014383,1.85
1762880168.020512,1.51
1762880168.0268018,1.9
1762880168.033122,1.52
1762880168.039488,1.5
1762880168.045589,1.69
1762880168.052068,1.26
1762880168.0580108,1.59
1762880168.064374,1.47
1762880168.07054,1.22
1762880168.076801,1.64
1762880168.083127,1.29
1762880168.089303,1.35
1762880168.095455,1.64
1762880168.101823,1.19
1762880168.108063,1.52
1762880168.1141682,1.52
1762880168.1205618,1.28
1762880168.126716,1.66
1762880168.13291,1.32
1762880168.139214,1.41
1762880168.145449,1.67
1762880168.151813,1.22
1762880168.158032,1.56
1762880168.164138,1.53
1762880168.170505,1.31
1762880168.176822,1.71
1762880168.182964,1.34
1762880168.189112,1.43
1762880168.1953862,1.72
1762880168.20174,1.26
1762880168.207932,1.62
1762880168.214128,1.58
1762880168.220484,1.3
1762880168.226633,1.74
1762880168.232959,1.38
1762880168.23919,1.43
1762880168.245436,1.7
1762880168.251743,1.24
1762880168.2578769,1.6
1762880168.264159,1.56
1762880168.270526,1.28
1762880168.276659,1.71
1762880168.282937,1.37
1762880168.2892,1.46
1762880168.295357,1.71
1762880168.301696,1.27
1762880168.307968,1.6
1762880168.3141289,1.55
1762880168.320471,1.33
1762880168.326655,1.81
1762880168.332908,1.49
1762880168.3392692,1.54
1762880168.345369,1.82
1762880168.3519459,1.5
1762880168.357876,1.88
1762880168.364213,1.76
1762880168.370464,1.45
1762880168.376655,1.92
1762880168.382874,1.51
1762880168.3892312,1.42
1762880168.395474,1.66
1762880168.401998,1.25
1762880168.4079602,1.58
1762880168.4140658,1.5
1762880168.420526,1.28
1762880168.426668,1.71
1762880168.43292,1.31
1762880168.439091,1.4
1762880168.445419,1.67
1762880168.4517288,1.22
1762880168.4579961,1.58
1762880168.464134,1.53
1762880168.470506,1.26
1762880168.476663,1.73
1762880168.4828491,1.41
1762880168.489181,1.44
1762880168.495347,1.67
1762880168.501708,1.27
1762880168.50797,1.68
1762880168.514099,1.72
1762880168.520421,1.69
1762880168.526766,2.77
1762880168.533084,3.16
1762880168.539186,3.17
1762880168.545404,3.17
1762880168.551776,2.91
1762880168.594023,1.22
1762880168.594242,0.92
1762880168.62896,1.55
1762880168.6291258,1.93
1762880168.629271,1.17
1762880168.629409,1.3
1762880168.629513,1.74
1762880168.629637,1.24
1762880168.629932,1.52
1762880168.630285,1.52
1762880168.630402,1.28
1762880168.63051,1.67
1762880168.632925,1.33
1762880168.6405609,1.47
1762880168.645386,1.7
1762880168.653329,1.21
1762880168.657852,1.62
1762880168.66416,1.61
1762880168.670548,1.35
1762880168.676607,1.75
1762880168.682893,1.42
1762880168.689164,1.52
1762880168.6954272,1.78
1762880168.7016902,1.33
1762880168.7078452,1.74
1762880168.714083,1.74
1762880168.720465,1.44
1762880168.726603,1.88
1762880168.732838,1.6
1762880168.739048,1.67
1762880168.745388,1.94
1762880168.75165,1.54
1762880168.757876,1.93
1762880168.764071,1.89
1762880168.770797,1.61
1762880168.776572,2.03
1762880168.782954,1.74
1762880168.789163,1.81
1762880168.795476,2.03
1762880168.801728,1.56
1762880168.807924,1.88
1762880168.8141608,1.77
1762880168.820443,1.42
1762880168.826575,1.79
1762880168.832803,1.44
1762880168.839272,1.47
1762880168.84537,1.68
1762880168.8515499,1.21
1762880168.857811,1.54
1762880168.864068,1.5
1762880168.870409,1.26
1762880168.876641,1.65
1762880168.882954,1.3
1762880168.889133,1.41
1762880168.8952801,1.67
1762880168.90156,1.2
1762880168.907748,1.59
1762880168.9140859,1.53
1762880168.920417,1.26
1762880168.926773,1.69
1762880168.9327419,1.38
1762880168.938992,1.45
1762880168.945264,1.68
1762880168.951583,1.26
1762880168.957775,1.64
1762880168.963992,1.57
1762880168.970407,1.31
1762880168.976531,1.75
1762880168.982817,1.39
1762880168.989016,1.46
1762880168.9952571,1.71
1762880169.00172,1.27
1762880169.0078342,1.62
1762880169.014011,1.57
1762880169.020434,1.32
1762880169.026548,1.73
1762880169.0327601,1.37
1762880169.038955,1.48
1762880169.045274,1.72
1762880169.0516212,1.26
1762880169.0577521,1.62
1762880169.0640588,1.56
1762880169.07039,1.3
1762880169.0765178,1.74
1762880169.082805,1.39
1762880169.089055,1.45
1762880169.095337,1.72
1762880169.1015098,1.26
1762880169.107767,1.62
1762880169.1139998,1.58
1762880169.1203442,1.33
1762880169.1265101,1.75
1762880169.132752,1.45
1762880169.138966,1.62
1762880169.14516,1.81
1762880169.151492,1.38
1762880169.15774,1.88
1762880169.164087,1.85
1762880169.170521,1.49
1762880169.176428,1.87
1762880169.18273,1.57
1762880169.189023,1.58
1762880169.195173,1.72
1762880169.201548,1.23
1762880169.2077591,1.61
1762880169.213983,1.55
1762880169.220288,1.25
1762880169.226503,1.68
1762880169.232773,1.36
1762880169.23908,1.43
1762880169.2452,1.66
1762880169.251561,1.22
1762880169.257688,1.61
1762880169.264034,1.56
1762880169.270227,1.31
1762880169.276475,1.71
1762880169.282767,1.37
1762880169.288974,1.48
1762880169.295264,1.74
1762880169.3015108,1.3
1762880169.307776,1.65
1762880169.3139908,1.57
1762880169.320404,1.45
1762880169.326446,2.12
1762880169.332822,2.3
1762880169.338994,3.16
1762880169.3453708,3.17
1762880169.351647,3.17
1762880169.357868,3.13
1762880169.363931,1.25
1762880169.370965,0.7
1762880169.376693,2.03
1762880169.382715,1.58
1762880169.388936,1.27
1762880169.395186,1.61
1762880169.4015281,1.29
1762880169.407635,1.63
1762880169.413931,1.52
1762880169.4203148,1.25
1762880169.42643,1.71
1762880169.4326851,1.35
1762880169.438922,1.43
1762880169.44516,1.73
1762880169.451416,1.3
1762880169.45769,1.63
1762880169.464034,1.56
1762880169.4702919,1.34
1762880169.476486,1.83
1762880169.4826891,1.4
1762880169.488995,1.47
1762880169.4951801,1.84
1762880169.5015,1.41
1762880169.507688,1.74
1762880169.513896,1.66
1762880169.520263,1.43
1762880169.526446,1.93
1762880169.532762,1.56
1762880169.53893,1.65
1762880169.5451179,1.98
1762880169.5515049,1.52
1762880169.557739,1.9
1762880169.563937,1.87
1762880169.570373,1.61
1762880169.5764852,2.1
1762880169.5826719,1.73
1762880169.588892,1.75
1762880169.595126,2.06
1762880169.601463,1.64
1762880169.6076941,1.97
1762880169.613906,1.83
1762880169.620254,1.49
1762880169.626533,1.94
1762880169.632711,1.54
1762880169.6388638,1.5
1762880169.645118,1.71
1762880169.651361,1.27
1762880169.6576052,1.61
1762880169.663928,1.51
1762880169.670208,1.26
1762880169.6764019,1.73
1762880169.682673,1.33
1762880169.688895,1.36
1762880169.695172,1.69
1762880169.701375,1.29
1762880169.707648,1.58
1762880169.713957,1.5
1762880169.720303,1.32
1762880169.726448,1.74
1762880169.732691,1.32
1762880169.738857,1.45
1762880169.745122,1.73
1762880169.751405,1.25
1762880169.75772,1.63
1762880169.763869,1.59
1762880169.770196,1.31
1762880169.7764008,1.73
1762880169.782687,1.42
1762880169.7888799,1.5
1762880169.795103,1.7
1762880169.801379,1.25
1762880169.807652,1.66
1762880169.813846,1.59
1762880169.820195,1.31
1762880169.826433,1.78
1762880169.832621,1.37
1762880169.838826,1.46
1762880169.845083,1.75
1762880169.851383,1.28
1762880169.857599,1.64
1762880169.8638139,1.61
1762880169.870477,1.34
1762880169.8764029,1.73
1762880169.882702,1.36
1762880169.888841,1.47
1762880169.895085,1.73
1762880169.9014459,1.3
1762880169.907728,1.67
1762880169.913864,1.56
1762880169.920217,1.31
1762880169.9264598,1.78
1762880169.932649,1.39
1762880169.938993,1.52
1762880169.945117,1.79
1762880169.9513652,1.38
1762880170.0479438,1.79
1762880170.0520902,1.71
1762880170.053331,1.51
1762880170.0551932,2.0
1762880170.0558112,1.61
1762880170.056182,1.62
1762880170.0565178,1.9
1762880170.057062,1.42
1762880170.061263,1.67
1762880170.0616589,1.55
1762880170.061891,1.31
1762880170.062104,1.74
1762880170.062311,1.35
1762880170.0625222,1.42
1762880170.064023,1.69
1762880170.064183,1.28
1762880170.064296,1.66
1762880170.064405,1.52
1762880170.070189,1.26
1762880170.083072,1.77
1762880170.083264,1.38
1762880170.089005,1.44
1762880170.095072,1.73
1762880170.10137,1.3
1762880170.107595,1.65
1762880170.113878,1.59
1762880170.120289,1.36
1762880170.1264,1.79
1762880170.13262,1.54
1762880170.138896,1.83
1762880170.1451788,2.65
1762880170.15136,3.08
1762880170.157658,3.17
1762880170.163871,3.17
1762880170.1701078,3.02
1762880170.176269,1.35
1762880170.182563,0.74
1762880170.188778,1.76
1762880170.194985,1.97
1762880170.201483,1.1
1762880170.207537,1.53
1762880170.213762,1.6
1762880170.220153,1.29
1762880170.226333,1.67
1762880170.232498,1.37
1762880170.238754,1.5
1762880170.245001,1.69
1762880170.251327,1.22
1762880170.257514,1.67
1762880170.263746,1.63
1762880170.270515,1.34
1762880170.276309,1.74
1762880170.282562,1.38
1762880170.288739,1.52
1762880170.295003,1.79
1762880170.301426,1.35
1762880170.307735,1.7
1762880170.330275,1.64
1762880170.3304682,1.44
1762880170.330622,1.92
1762880170.3325682,1.54
1762880170.339382,1.61
1762880170.345073,1.86
1762880170.352706,1.5
1762880170.357596,1.89
1762880170.363979,1.78
1762880170.37012,1.58
1762880170.376367,2.08
1762880170.382605,1.7
1762880170.388771,1.78
1762880170.394945,2.06
1762880170.401404,1.61
1762880170.4075131,1.99
1762880170.413717,1.91
1762880170.420023,1.63
1762880170.426346,2.03
1762880170.4325728,1.61
1762880170.4386811,1.65
1762880170.4449542,1.83
1762880170.451354,1.33
1762880170.45751,1.69
1762880170.4637172,1.58
1762880170.470029,1.3
1762880170.476214,1.71
1762880170.482644,1.34
1762880170.488767,1.44
1762880170.49498,1.65
1762880170.501374,1.2
1762880170.507534,1.61
1762880170.513845,1.52
1762880170.5200589,1.29
1762880170.5263062,1.74
1762880170.532439,1.35
1762880170.538691,1.47
1762880170.545053,1.74
1762880170.5513248,1.28
1762880170.557485,1.67
1762880170.563775,1.57
1762880170.570088,1.33
1762880170.5762382,1.77
1762880170.582439,1.37
1762880170.588711,1.49
1762880170.594995,1.74
1762880170.601227,1.29
1762880170.607501,1.67
1762880170.613814,1.59
1762880170.620489,1.37
1762880170.62626,1.75
1762880170.6325078,1.38
1762880170.638705,1.54
1762880170.644942,1.76
1762880170.651646,1.3
1762880170.6574368,1.67
1762880170.663742,1.55
1762880170.669943,1.32
1762880170.6761549,1.77
1762880170.682452,1.38
1762880170.688739,1.51
1762880170.694916,1.75
1762880170.701355,1.29
1762880170.707433,1.68
1762880170.713778,1.54
1762880170.720101,1.33
1762880170.726272,1.84
1762880170.732576,1.41
1762880170.738705,1.47
1762880170.7448902,1.81
1762880170.751217,1.43
1762880170.757482,1.74
1762880170.763674,1.69
1762880170.770045,1.57
1762880170.776211,2.03
1762880170.782422,1.56
1762880170.788688,1.65
1762880170.794909,1.92
1762880170.801425,1.36
1762880170.807461,1.66
1762880170.813643,1.54
1762880170.82016,1.31
1762880170.826379,1.72
1762880170.832483,1.3
1762880170.838638,1.42
1762880170.844959,1.64
1762880170.851149,1.25
1762880170.857423,1.7
1762880170.86366,1.54
1762880170.8700302,1.29
1762880170.876297,1.73
1762880170.882452,1.33
1762880170.888721,1.47
1762880170.8948429,1.72
1762880170.901263,1.3
1762880170.907449,1.71
1762880170.913664,1.59
1762880170.9203331,1.36
1762880170.92624,1.85
1762880170.9324648,1.65
1762880170.938623,2.19
1762880170.9448938,3.16
1762880170.9511712,3.16
1762880170.957494,3.17
1762880170.963658,3.16
1762880170.9700842,1.86
1762880170.976178,1.05
1762880170.9823942,1.33
1762880170.9886599,1.74
1762880170.9948559,1.66
1762880171.001143,1.12
1762880171.0074,1.65
1762880171.013605,1.54
1762880171.019955,1.3
1762880171.026165,1.69
1762880171.032404,1.29
1762880171.038698,1.46
1762880171.04486,1.7
1762880171.051589,1.22
1762880171.0576692,1.62
1762880171.063637,1.54
1762880171.0699,1.34
1762880171.076149,1.78
1762880171.082405,1.38
1762880171.088646,1.52
1762880171.09485,1.74
1762880171.101563,1.31
1762880171.107383,1.73
1762880171.113581,1.63
1762880171.11996,1.45
1762880171.12623,1.87
1762880171.132326,1.46
1762880171.138597,1.61
1762880171.1448052,1.88
1762880171.151351,1.52
1762880171.157304,1.9
1762880171.163636,1.75
1762880171.170174,1.57
1762880171.1762419,2.08
1762880171.1823711,1.65
1762880171.188658,1.75
1762880171.194835,2.05
1762880171.2011352,1.61
1762880171.2074099,1.96
1762880171.21369,1.81
1762880171.220027,1.59
1762880171.226212,1.97
1762880171.232437,1.52
1762880171.2386718,1.59
1762880171.2448409,1.75
1762880171.251332,1.27
1762880171.257525,1.65
1762880171.263548,1.52
1762880171.269866,1.24
1762880171.276194,1.66
1762880171.282403,1.28
1762880171.288604,1.45
1762880171.294825,1.63
1762880171.301923,1.16
1762880171.307301,1.61
1762880171.3137941,1.49
1762880171.319932,1.26
1762880171.326134,1.67
1762880171.332683,1.31
1762880171.33876,1.46
1762880171.344855,1.64
1762880171.3513322,1.22
1762880171.357364,1.69
1762880171.3635259,1.53
1762880171.369824,1.29
1762880171.38396,1.71
1762880171.3983738,1.32
1762880171.398537,1.5
1762880171.398622,1.72
1762880171.4019709,1.26
1762880171.412155,1.65
1762880171.422275,1.56
1762880171.4224918,1.37
1762880171.4270191,1.74
1762880171.4330912,1.34
1762880171.441565,1.49
1762880171.446799,1.67
1762880171.4510841,1.25
1762880171.458997,1.66
1762880171.463517,1.51
1762880171.469881,1.37
1762880171.476078,1.76
1762880171.482304,1.33
1762880171.488799,1.49
1762880171.494893,1.75
1762880171.501406,1.38
1762880171.507485,1.79
1762880171.5136409,1.62
1762880171.519979,1.52
1762880171.526043,1.99
1762880171.532394,1.57
1762880171.538661,1.61
1762880171.544807,1.84
1762880171.55214,1.4
1762880171.5573142,1.7
1762880171.5636768,1.48
1762880171.5697541,1.27
1762880171.576131,1.7
1762880171.582299,1.29
1762880171.588736,1.42
1762880171.594741,1.63
1762880171.601011,1.2
1762880171.6072361,1.59
1762880171.613682,1.47
1762880171.619832,1.28
1762880171.626017,1.71
1762880171.6322298,1.28
1762880171.638599,1.45
1762880171.644762,1.68
1762880171.6516109,1.24
1762880171.657346,1.67
1762880171.6635551,1.52
1762880171.669845,1.3
1762880171.676221,1.75
1762880171.682257,1.43
1762880171.688714,1.72
1762880171.694798,2.31
1762880171.701083,2.76
1762880171.707272,3.17
1762880171.713648,3.17
1762880171.719776,3.17
1762880171.726038,2.38
1762880171.732298,0.55
1762880171.738464,1.34
1762880171.744735,2.02
1762880171.751035,1.15
1762880171.757264,1.46
1762880171.7635531,1.52
1762880171.7697952,1.31
1762880171.7760131,1.62
1762880171.7822,1.24
1762880171.788564,1.45
1762880171.7947772,1.64
1762880171.801435,1.23
1762880171.807349,1.65
1762880171.813493,1.5
1762880171.820086,1.3
1762880171.826018,1.69
1762880171.832295,1.3
1762880171.838667,1.54
1762880171.844812,1.72
1762880171.8518121,1.27
1762880171.857288,1.71
1762880171.863709,1.62
1762880171.869972,1.42
1762880171.876081,1.82
1762880171.882377,1.42
1762880171.888587,1.63
1762880171.8947132,1.81
1762880171.9010859,1.4
1762880171.907288,1.89
1762880171.913414,1.74
1762880171.919751,1.53
1762880171.925994,2.01
1762880171.9321878,1.63
1762880171.938499,1.77
1762880171.944684,2.0
1762880171.951055,1.56
1762880171.95731,1.94
1762880171.9634938,1.81
1762880171.969716,1.62
1762880171.975934,1.99
1762880171.982243,1.52
1762880171.988532,1.63
1762880171.9947011,1.77
1762880172.001367,1.28
1762880172.007381,1.67
1762880172.013558,1.48
1762880172.019775,1.29
1762880172.025919,1.67
1762880172.032466,1.26
1762880172.0385122,1.41
1762880172.044841,1.58
1762880172.0514681,1.2
1762880172.057276,1.62
1762880172.063387,1.42
1762880172.069798,1.21
1762880172.0759199,1.65
1762880172.082247,1.32
1762880172.088545,1.49
1762880172.094656,1.6
1762880172.101131,1.19
1762880172.107237,1.65
1762880172.113698,1.49
1762880172.119643,1.32
1762880172.126014,1.72
1762880172.132253,1.31
1762880172.138432,1.52
1762880172.1446168,1.69
1762880172.150969,1.24
1762880172.157344,1.67
1762880172.1633458,1.51
1762880172.169625,1.31
1762880172.175903,1.74
1762880172.182104,1.34
1762880172.188422,1.48
1762880172.194651,1.66
1762880172.20125,1.27
1762880172.207168,1.68
1762880172.213401,1.46
1762880172.219609,1.31
1762880172.2258592,1.74
1762880172.232121,1.32
1762880172.2383769,1.5
1762880172.244661,1.67
1762880172.251034,1.25
1762880172.257107,1.66
1762880172.2635362,1.47
1762880172.269686,1.33
1762880172.2758741,1.75
1762880172.282101,1.37
1762880172.2884622,1.61
1762880172.294673,1.78
1762880172.300978,1.33
1762880172.3071449,1.84
1762880172.313471,1.76
1762880172.319613,1.53
1762880172.3259048,1.89
1762880172.3320801,1.47
1762880172.33838,1.64
1762880172.3446531,1.7
1762880172.351109,1.21
1762880172.3570912,1.62
1762880172.363352,1.45
1762880172.369657,1.26
1762880172.3759239,1.67
1762880172.382109,1.27
1762880172.3884008,1.44
1762880172.394737,1.6
1762880172.401269,1.21
1762880172.407159,1.62
1762880172.4133902,1.41
1762880172.419616,1.26
1762880172.425879,1.74
1762880172.432102,1.29
1762880172.4383948,1.45
1762880172.444674,1.65
1762880172.451209,1.29
1762880172.457184,1.68
1762880172.463368,1.47
1762880172.469609,1.39
1762880172.475816,1.97
1762880172.4820979,1.98
1762880172.4883652,3.06
1762880172.494588,3.17
1762880172.500989,3.17
1762880172.507437,3.17
1762880172.513439,2.02
1762880172.519774,0.62
1762880172.525964,1.65
1762880172.5321422,1.63
1762880172.538461,1.48
1762880172.5446038,1.47
1762880172.551166,1.17
1762880172.5571442,1.67
1762880172.563354,1.4
1762880172.569571,1.22
1762880172.5758479,1.72
1762880172.582039,1.3
1762880172.5883148,1.47
1762880172.594561,1.61
1762880172.6009028,1.22
1762880172.607123,1.66
1762880172.6133142,1.48
1762880172.6195781,1.33
1762880172.6258729,1.75
1762880172.6322298,1.35
1762880172.638297,1.57
1762880172.6446028,1.67
1762880172.651232,1.29
1762880172.6572149,1.76
1762880172.663389,1.57
1762880172.6696389,1.43
1762880172.6757991,1.85
1762880172.682029,1.47
1762880172.6882718,1.69
1762880172.694535,1.87
1762880172.7011409,1.5
1762880172.707108,1.93
1762880172.7134662,1.74
1762880172.719635,1.63
1762880172.725863,2.06
1762880172.732158,1.62
1762880172.7383401,1.81
1762880172.7448242,2.01
1762880172.750981,1.56
1762880172.75709,1.96
1762880172.763402,1.74
1762880172.7719638,1.51
1762880172.783152,1.86
1762880172.80614,1.44
1762880172.809535,1.57
1762880172.822908,1.65
1762880172.830847,1.2
1762880172.839573,1.63
1762880172.839946,1.43
1762880172.8400981,1.29
1762880172.840372,1.64
1762880172.8404531,1.24
1762880172.840519,1.49
1762880172.8445,1.6
1762880172.8513439,1.15
1762880172.857336,1.62
1762880172.8634439,1.43
1762880172.869457,1.25
1762880172.875807,1.68
1762880172.882025,1.29
1762880172.8882859,1.48
1762880172.89452,1.62
1762880172.900766,1.23
1762880172.906945,1.66
1762880172.9133801,1.44
1762880172.91954,1.33
1762880172.9261801,1.75
1762880172.9320471,1.3
1762880172.9383721,1.51
1762880172.944555,1.67
1762880172.9508932,1.28
1762880172.957057,1.68
1762880172.963414,1.45
1762880172.969574,1.33
1762880172.9757838,1.74
1762880172.982111,1.3
1762880172.988204,1.52
1762880172.9944918,1.63
1762880173.00095,1.24
1762880173.006952,1.7
1762880173.013451,1.48
1762880173.019605,1.33
1762880173.025834,1.71
1762880173.032297,1.31
1762880173.038197,1.54
1762880173.0445209,1.64
1762880173.050753,1.24
1762880173.05725,1.7
1762880173.063166,1.49
1762880173.0695128,1.33
1762880173.07569,1.73
1762880173.082027,1.29
1762880173.0881531,1.54
1762880173.094453,1.67
1762880173.100776,1.27
1762880173.107407,1.71
1762880173.113299,1.47
1762880173.1195211,1.36
1762880173.1257339,1.79
1762880173.132035,1.36
1762880173.138123,1.6
1762880173.144462,1.78
1762880173.150738,1.39
1762880173.157088,1.81
1762880173.1633222,1.72
1762880173.169475,1.64
1762880173.175691,1.96
1762880173.182225,1.43
1762880173.188134,1.69
1762880173.1944032,1.82
1762880173.2006452,1.31
1762880173.206961,1.68
1762880173.21315,1.44
1762880173.219421,1.35
1762880173.225732,1.74
1762880173.232764,1.29
1762880173.238199,1.53
1762880173.244443,1.65
1762880173.250728,1.24
1762880173.256994,1.67
1762880173.263289,1.46
1762880173.269514,1.35
1762880173.275685,1.72
1762880173.282016,1.31
1762880173.2882,1.54
1762880173.2944121,1.64
1762880173.3007202,1.29
1762880173.306935,1.77
1762880173.3132749,1.52
1762880173.319726,1.4
1762880173.32583,1.93
1762880173.332318,1.7
1762880173.3382459,2.44
1762880173.344533,3.17
1762880173.350805,3.17
1762880173.356951,3.18
1762880173.3632278,3.09
1762880173.3694248,1.27
1762880173.375762,1.09
1762880173.382414,1.49
1762880173.388077,1.79
1762880173.394402,1.55
1762880173.400643,1.16
1762880173.40694,1.69
1762880173.4131541,1.46
1762880173.419442,1.32
1762880173.425806,1.71
1762880173.431956,1.28
1762880173.438071,1.52
1762880173.4445062,1.64
1762880173.4507442,1.26
1762880173.4569778,1.69
1762880173.46325,1.46
1762880173.469532,1.36
1762880173.4756632,1.77
1762880173.4820638,1.38
1762880173.4881222,1.58
1762880173.494376,1.71
1762880173.500615,1.35
1762880173.5069282,1.75
1762880173.513174,1.57
1762880173.519548,1.51
1762880173.525641,1.89
1762880173.532464,1.46
1762880173.538073,1.7
1762880173.544362,1.87
1762880173.5507042,1.5
1762880173.5568562,1.93
1762880173.563262,1.75
1762880173.5695329,1.68
1762880173.575745,2.07
1762880173.582141,1.61
1762880173.588136,1.84
1762880173.594348,2.03
1762880173.6006458,1.62
1762880173.60686,1.98
1762880173.6132329,1.79
1762880173.619346,1.65
1762880173.6256819,1.94
1762880173.632281,1.49
1762880173.638069,1.67
1762880173.644361,1.7
1762880173.6508422,1.27
1762880173.656919,1.67
1762880173.66321,1.42
1762880173.6694021,1.3
1762880173.675667,1.69
1762880173.6823308,1.28
1762880173.688092,1.48
1762880173.6943638,1.54
1762880173.7008011,1.2
1762880173.7070022,1.64
1762880173.713382,1.43
1762880173.719425,1.32
1762880173.725593,1.71
1762880173.731821,1.29
1762880173.738047,1.52
1762880173.744323,1.61
1762880173.750656,1.27
1762880173.75686,1.69
1762880173.763205,1.45
1762880173.7693288,1.36
1762880173.775548,1.75
1762880173.781895,1.32
1762880173.788073,1.52
1762880173.7943199,1.65
1762880173.8005939,1.31
1762880173.806834,1.7
1762880173.813133,1.44
1762880173.819304,1.37
1762880173.8255832,1.76
1762880173.832266,1.32
1762880173.838048,1.54
1762880173.844348,1.62
1762880173.8505979,1.3
1762880173.856826,1.72
1762880173.863115,1.44
1762880173.869397,1.34
1762880173.875581,1.75
1762880173.88179,1.34
1762880173.888074,1.55
1762880173.894356,1.63
1762880173.9004989,1.28
1762880173.906806,1.69
1762880173.913246,1.45
1762880173.9193149,1.39
1762880173.925577,1.75
1762880173.931916,1.31
1762880173.9379652,1.54
1762880173.944448,1.64
1762880173.950637,1.3
1762880173.956834,1.73
1762880173.96304,1.46
1762880173.9692621,1.37
1762880173.975511,1.74
1762880173.981825,1.33
1762880173.987961,1.59
1762880173.994333,1.67
1762880174.000603,1.29
1762880174.0068429,1.71
1762880174.0130408,1.51
1762880174.019274,1.42
1762880174.025694,1.75
1762880174.032104,1.37
1762880174.037955,1.65
1762880174.044289,1.78
1762880174.050519,1.39
1762880174.0568042,1.86
1762880174.063045,1.72
1762880174.0692391,1.68
1762880174.075509,1.96
1762880174.0821602,1.44
1762880174.0879302,1.72
1762880174.094228,1.82
1762880174.100449,1.36
1762880174.1067572,1.72
1762880174.113027,1.46
1762880174.1192162,1.4
1762880174.1254778,1.74
1762880174.1324449,1.28
1762880174.137962,1.56
1762880174.14431,1.67
1762880174.1505668,1.29
1762880174.156787,1.69
1762880174.1630652,1.49
1762880174.181481,1.44
1762880174.2089741,1.75
1762880174.209152,1.31
1762880174.217349,1.6
1762880174.228364,1.69
1762880174.2423081,1.32
1762880174.242496,1.75
1762880174.242601,1.51
1762880174.242707,1.47
1762880174.24279,1.94
1762880174.242868,1.79
1762880174.242949,2.65
1762880174.2442229,3.16
1762880174.2505531,3.17
1762880174.258928,3.17
1762880174.268269,3.0
1762880174.269341,1.2
1762880174.27614,1.21
1762880174.2824728,1.51
1762880174.2879941,1.77
1762880174.294374,1.56
1762880174.300524,1.19
1762880174.306724,1.7
1762880174.313041,1.47
1762880174.31926,1.36
1762880174.325547,1.71
1762880174.332095,1.29
1762880174.3379421,1.55
1762880174.3442,1.66
1762880174.3505611,1.3
1762880174.3567371,1.71
1762880174.3629289,1.46
1762880174.3692951,1.46
1762880174.375509,1.81
1762880174.381758,1.37
1762880174.387872,1.6
1762880174.394198,1.7
1762880174.4004622,1.4
1762880174.40673,1.79
1762880174.412989,1.56
1762880174.419193,1.56
1762880174.425473,1.91
1762880174.431757,1.46
1762880174.437932,1.74
1762880174.4442308,1.85
1762880174.4504452,1.52
1762880174.456707,1.98
1762880174.4629362,1.77
1762880174.469204,1.71
1762880174.475453,2.06
1762880174.482046,1.65
1762880174.487846,1.92
1762880174.4941928,2.02
1762880174.500423,1.63
1762880174.506762,2.04
1762880174.512953,1.78
1762880174.519147,1.69
1762880174.525506,2.0
1762880174.531747,1.47
1762880174.537847,1.69
1762880174.544127,1.74
1762880174.5505111,1.32
1762880174.556746,1.68
1762880174.5629299,1.45
1762880174.569215,1.4
1762880174.575437,1.7
1762880174.581982,1.24
1762880174.5878851,1.52
1762880174.594156,1.58
1762880174.600495,1.24
1762880174.606653,1.7
1762880174.612946,1.42
1762880174.619183,1.34
1762880174.625473,1.69
1762880174.631854,1.3
1762880174.6379032,1.6
1762880174.644247,1.6
1762880174.6505191,1.27
1762880174.657082,1.72
1762880174.66299,1.48
1762880174.669248,1.44
1762880174.6754408,1.76
1762880174.6817229,1.3
1762880174.687913,1.56
1762880174.6942878,1.66
1762880174.7004821,1.33
1762880174.706711,1.74
1762880174.7128909,1.46
1762880174.719122,1.45
1762880174.7253618,1.76
1762880174.731946,1.32
1762880174.737843,1.59
1762880174.744144,1.62
1762880174.750439,1.29
1762880174.756734,1.73
1762880174.762882,1.46
1762880174.769208,1.44
1762880174.7753139,1.75
1762880174.781674,1.32
1762880174.787887,1.6
1762880174.794167,1.6
1762880174.800457,1.3
1762880174.806709,1.76
1762880174.812921,1.48
1762880174.819116,1.42
1762880174.825459,1.72
1762880174.8319418,1.31
1762880174.8378859,1.58
1762880174.8441331,1.63
1762880174.8503418,1.33
1762880174.8569129,1.74
1762880174.862937,1.45
1762880174.86917,1.42
1762880174.8753579,1.76
1762880174.881623,1.32
1762880174.8879108,1.6
1762880174.8940969,1.67
1762880174.9003851,1.39
1762880174.906678,1.84
1762880174.9129012,1.57
1762880174.919092,1.55
1762880174.925406,1.92
1762880174.931683,1.55
1762880174.937807,1.83
1762880174.944107,1.78
1762880174.950372,1.44
1762880174.9571168,1.88
1762880174.9628968,1.54
1762880174.969082,1.45
1762880174.9754019,1.74
1762880174.982033,1.27
1762880174.9878988,1.56
1762880174.9940999,1.63
1762880175.0003898,1.29
1762880175.0066402,1.72
1762880175.0128791,1.46
1762880175.0190809,1.42
1762880175.0253382,1.72
1762880175.032068,1.32
1762880175.037884,1.64
1762880175.0441442,1.67
1762880175.050378,1.32
1762880175.0566678,1.75
1762880175.062922,1.51
1762880175.0691252,1.49
1762880175.075364,1.79
1762880175.081975,1.34
1762880175.087887,1.75
1762880175.094084,2.01
1762880175.10038,2.12
1762880175.106658,3.17
1762880175.11292,3.17
1762880175.119055,3.17
1762880175.1253781,3.17
1762880175.1316879,1.9
1762880175.1395159,0.98
1762880175.1645849,1.57
1762880175.165152,1.6
1762880175.1653812,1.77
1762880175.165571,1.34
1762880175.169099,1.44
1762880175.175294,1.78
1762880175.1815941,1.3
1762880175.187882,1.61
1762880175.1940732,1.66
1762880175.200471,1.33
1762880175.206602,1.76
1762880175.21288,1.46
1762880175.2190442,1.52
1762880175.225363,1.84
1762880175.231672,1.37
1762880175.2377238,1.69
1762880175.244053,1.71
1762880175.250278,1.4
1762880175.256683,1.89
1762880175.262812,1.6
1762880175.2691011,1.57
1762880175.2753751,1.89
1762880175.281638,1.47
1762880175.2877781,1.84
1762880175.294019,1.86
1762880175.3003368,1.52
1762880175.306674,2.03
1762880175.312974,1.75
1762880175.3190122,1.74
1762880175.325273,2.13
1762880175.331548,1.7
1762880175.3377862,2.01
1762880175.344129,2.06
1762880175.363932,1.73
1762880175.380246,2.17
1762880175.390697,1.89
1762880175.390877,1.9
1762880175.391028,2.23
1762880175.407306,1.68
1762880175.4076018,1.93
1762880175.4076622,1.96
1762880175.407716,1.54
1762880175.4077702,1.94
1762880175.41327,1.6
1762880175.42051,1.56
1762880175.4253619,1.9
1762880175.431593,1.4
1762880175.4400792,1.68
1762880175.444084,1.72
1762880175.4503858,1.41
1762880175.457192,1.85
1762880175.46274,1.53
1762880175.469131,1.56
1762880175.4752991,1.86
1762880175.481888,1.37
1762880175.48779,1.75
1762880175.494197,1.76
1762880175.500365,1.38
1762880175.5064929,1.9
1762880175.512716,1.62
1762880175.519032,1.59
1762880175.525229,1.9
1762880175.531585,1.45
1762880175.5378098,1.81
1762880175.54412,1.81
1762880175.550246,1.47
1762880175.5565262,1.96
1762880175.562716,1.63
1762880175.5689979,1.6
1762880175.575207,1.95
1762880175.581449,1.51
1762880175.5877,1.83
1762880175.594006,1.81
1762880175.6002839,1.49
1762880175.6066098,1.96
1762880175.6130471,1.6
1762880175.6189802,1.63
1762880175.6251671,1.98
1762880175.631445,1.47
1762880175.637671,1.8
1762880175.643997,1.77
1762880175.650202,1.49
1762880175.6564429,1.97
1762880175.663154,1.64
1762880175.6691892,1.63
1762880175.6751812,1.91
1762880175.6815,1.41
1762880175.687732,1.82
1762880175.694114,1.82
1762880175.7002518,1.42
1762880175.706527,1.88
1762880175.71327,1.61
1762880175.718945,1.64
1762880175.7252321,1.91
1762880175.731462,1.42
1762880175.73768,1.81
1762880175.743953,1.78
1762880175.750277,1.44
1762880175.756531,1.93
1762880175.762943,1.55
1762880175.768915,1.58
1762880175.775188,1.92
1762880175.781474,1.43
1762880175.7876852,1.78
1762880175.793967,1.77
1762880175.8002691,1.43
1762880175.8065841,1.92
1762880175.81326,1.64
1762880175.8188999,1.7
1762880175.825237,1.98
1762880175.831614,1.52
1762880175.8377512,1.99
1762880175.844192,1.96
1762880175.8503108,1.54
1762880175.856462,2.01
1762880175.862975,1.71
1762880175.868907,1.67
1762880175.8752372,1.88
1762880175.8815439,1.32
1762880175.887595,1.68
1762880175.8942459,1.69
1762880175.900314,1.38
1762880175.906698,1.84
1762880175.9127538,1.44
1762880175.918863,1.47
1762880175.9251919,1.82
1762880175.931455,1.35
1762880175.9378712,1.69
1762880175.944075,1.64
1762880175.9502988,1.35
1762880175.956786,1.82
1762880175.962624,1.48
1762880175.968941,1.52
1762880175.9752,1.83
1762880175.9815838,1.35
1762880175.987592,1.72
1762880175.9939451,1.8
1762880176.000112,1.74
1762880176.006523,2.85
1762880176.013129,3.16
1762880176.018774,3.17
1762880176.025234,3.17
1762880176.031543,2.98
1762880176.037611,1.33
1762880176.0440378,0.99
1762880176.0501618,1.58
1762880176.0566761,2.01
1762880176.063036,1.23
1762880176.0688288,1.31
1762880176.075177,1.76
1762880176.081364,1.24
1762880176.087627,1.59
1762880176.093861,1.57
1762880176.100151,1.24
1762880176.1065001,1.71
1762880176.113313,1.37
1762880176.1188,1.4
1762880176.125163,1.71
1762880176.131391,1.24
1762880176.137558,1.64
1762880176.1438668,1.61
1762880176.150063,1.28
1762880176.1565251,1.75
1762880176.1633558,1.42
1762880176.1688268,1.47
1762880176.175176,1.74
1762880176.181521,1.3
1762880176.187551,1.71
1762880176.19382,1.66
1762880176.200127,1.36
1762880176.206367,1.88
1762880176.2131321,1.52
1762880176.2189078,1.58
1762880176.225046,1.94
1762880176.231361,1.49
1762880176.237668,1.84
1762880176.243934,1.78
1762880176.2501109,1.52
1762880176.256406,2.03
1762880176.2625961,1.68
1762880176.2689128,1.7
1762880176.2751849,1.98
1762880176.281427,1.49
1762880176.287561,1.82
1762880176.2937841,1.73
1762880176.300125,1.36
1762880176.306431,1.78
1762880176.3129659,1.35
1762880176.318806,1.33
1762880176.325082,1.59
1762880176.3314471,1.12
1762880176.337555,1.47
1762880176.3440158,1.4
1762880176.350114,1.06
1762880176.3562748,1.57
1762880176.362987,1.23
1762880176.368766,1.25
1762880176.375135,1.54
1762880176.381398,1.03
1762880176.387566,1.43
1762880176.393847,1.44
1762880176.400054,1.09
1762880176.406323,1.56
1762880176.413203,1.24
1762880176.418724,1.26
1762880176.4251032,1.54
1762880176.4312818,1.09
1762880176.4375281,1.45
1762880176.443798,1.41
1762880176.4500191,1.13
1762880176.456656,1.62
1762880176.462661,1.25
1762880176.468693,1.29
1762880176.475091,1.54
1762880176.4814599,1.1
1762880176.4877272,1.52
1762880176.4940548,1.43
1762880176.50003,1.1
1762880176.506345,1.61
1762880176.512834,1.22
1762880176.518817,1.24
1762880176.5250728,1.58
1762880176.531412,1.12
1762880176.537527,1.46
1762880176.544085,1.39
1762880176.550088,1.13
1762880176.5563369,1.59
1762880176.5626812,1.19
1762880176.5687108,1.29
1762880176.5750709,1.58
1762880176.581429,1.09
1762880176.5877771,1.47
1762880176.59389,1.41
1762880176.600317,1.13
1762880176.606348,1.59
1762880176.6130219,1.21
1762880176.618738,1.28
1762880176.62501,1.57
1762880176.6313941,1.08
1762880176.637599,1.48
1762880176.643816,1.44
1762880176.6500502,1.14
1762880176.656418,1.58
1762880176.662865,1.22
1762880176.668842,1.32
1762880176.6750588,1.59
1762880176.681337,1.09
1762880176.687464,1.51
1762880176.693773,1.44
1762880176.7000341,1.13
1762880176.70635,1.64
1762880176.712513,1.32
1762880176.7186801,1.41
1762880176.725107,1.69
1762880176.731267,1.25
1762880176.737429,1.71
1762880176.7438688,1.68
1762880176.749964,1.31
1762880176.756364,1.73
1762880176.762549,1.43
1762880176.768726,1.47
1762880176.775028,1.58
1762880176.7901351,1.07
1762880176.790333,1.49
1762880176.796133,1.41
1762880176.8434,1.12
1762880176.849943,1.6
1762880176.850223,1.22
1762880176.85044,1.29
1762880176.8505511,1.56
1762880176.8506901,1.09
1762880176.850821,1.48
1762880176.851,1.41
1762880176.851254,1.14
1762880176.856384,1.64
1762880176.864186,1.28
1762880176.868695,1.33
1762880176.8751411,1.6
1762880176.8812969,1.18
1762880176.887402,1.56
1762880176.893708,1.52
1762880176.900146,1.42
1762880176.906373,2.22
1762880176.912559,2.61
1762880176.918659,3.17
1762880176.9249642,3.17
1762880176.9312131,3.16
1762880176.937419,1.96
1762880176.943806,0.51
1762880176.95005,1.14
1762880176.956216,2.05
1762880176.9625118,1.2
1762880176.968822,1.15
1762880176.9749389,1.65
1762880176.9810932,1.16
1762880176.987416,1.45
1762880176.993694,1.37
1762880177.000021,1.16
1762880177.006353,1.66
1762880177.0126421,1.25
1762880177.018757,1.33
1762880177.025064,1.63
1762880177.0311801,1.15
1762880177.037429,1.53
1762880177.043982,1.5
1762880177.049908,1.21
1762880177.05617,1.68
1762880177.062461,1.34
1762880177.068661,1.42
1762880177.074997,1.69
1762880177.0812008,1.23
1762880177.087467,1.67
1762880177.0937212,1.61
1762880177.099932,1.33
1762880177.1061382,1.79
1762880177.1128829,1.46
1762880177.1187541,1.6
1762880177.124985,1.86
1762880177.1311822,1.41
1762880177.137439,1.87
1762880177.143866,1.78
1762880177.1500318,1.51
1762880177.1561658,2.0
1762880177.162448,1.62
1762880177.1686752,1.7
1762880177.175064,1.98
1762880177.181122,1.51
1762880177.187392,1.87
1762880177.1937149,1.75
1762880177.199931,1.41
1762880177.206203,1.85
1762880177.2126,1.41
1762880177.218536,1.41
1762880177.225008,1.64
1762880177.231196,1.15
1762880177.237375,1.53
1762880177.2439191,1.43
1762880177.249951,1.09
1762880177.256135,1.63
1762880177.2623732,1.28
1762880177.268569,1.31
1762880177.274951,1.55
1762880177.281127,1.09
1762880177.287421,1.53
1762880177.293866,1.46
1762880177.299855,1.17
1762880177.30608,1.63
1762880177.312392,1.26
1762880177.318654,1.38
1762880177.324966,1.66
1762880177.33113,1.16
1762880177.3373508,1.54
1762880177.343731,1.48
1762880177.350026,1.23
1762880177.3561149,1.7
1762880177.362379,1.34
1762880177.3686929,1.4
1762880177.374984,1.67
1762880177.381065,1.21
1762880177.38731,1.57
1762880177.393687,1.52
1762880177.399909,1.26
1762880177.406035,1.7
1762880177.412398,1.33
1762880177.418654,1.41
1762880177.424896,1.64
1762880177.431071,1.2
1762880177.43732,1.61
1762880177.443677,1.54
1762880177.449901,1.27
1762880177.456105,1.71
1762880177.462757,1.33
1762880177.468769,1.43
1762880177.474853,1.7
1762880177.4810429,1.23
1762880177.4873579,1.62
1762880177.49382,1.54
1762880177.49987,1.29
1762880177.506104,1.75
1762880177.512437,1.36
1762880177.518625,1.44
1762880177.5250392,1.72
1762880177.531018,1.27
1762880177.537287,1.66
1762880177.543636,1.57
1762880177.549825,1.3
1762880177.556169,1.73
1762880177.56231,1.37
1762880177.568616,1.5
1762880177.574815,1.72
1762880177.5810292,1.25
1762880177.5876951,1.69
1762880177.593672,1.65
1762880177.599923,1.43
1762880177.606045,1.9
1762880177.613003,1.52
1762880177.618645,1.67
1762880177.624904,1.98
1762880177.631049,1.48
1762880177.637316,1.78
1762880177.643677,1.74
1762880177.649832,1.44
1762880177.656071,1.79
1762880177.662393,1.38
1762880177.668654,1.46
1762880177.674885,1.68
1762880177.681001,1.24
1762880177.687358,1.66
1762880177.693707,1.56
1762880177.6998599,1.29
1762880177.7060952,1.78
1762880177.71236,1.4
1762880177.718472,1.46
1762880177.724884,1.73
1762880177.7309718,1.28
1762880177.7372758,1.68
1762880177.7435892,1.61
1762880177.749838,1.35
1762880177.7560441,1.8
1762880177.762319,1.44
1762880177.7685618,1.53
1762880177.7748601,1.88
1762880177.781014,1.63
1762880177.787334,2.57
1762880177.793683,3.16
1762880177.79994,3.17
1762880177.8060749,3.17
1762880177.8123,3.12
1762880177.8184268,1.55
1762880177.824785,1.06
1762880177.83102,1.36
1762880177.8373199,1.92
1762880177.843561,1.52
1762880177.849824,1.2
1762880177.856004,1.77
1762880177.8623219,1.36
1762880177.8684428,1.42
1762880177.8747342,1.73
1762880177.8810182,1.26
1762880177.887237,1.66
1762880177.893582,1.59
1762880177.899724,1.31
1762880177.90608,1.74
1762880177.9123049,1.41
1762880177.918463,1.54
1762880177.9248672,1.8
1762880177.931117,1.33
1762880177.937273,1.73
1762880177.943616,1.62
1762880177.949892,1.39
1762880177.956032,1.9
1762880177.9626749,1.52
1762880177.968451,1.57
1762880177.974762,1.85
1762880177.981021,1.47
1762880177.987296,1.87
1762880177.99363,1.8
1762880177.999701,1.51
1762880178.0059671,2.02
1762880178.0123022,1.7
1762880178.018454,1.78
1762880178.0247,2.05
1762880178.0309289,1.61
1762880178.03729,2.0
1762880178.043581,1.94
1762880178.049742,1.67
1762880178.055989,2.13
1762880178.0622652,1.74
1762880178.0684319,1.75
1762880178.074704,1.95
1762880178.080936,1.46
1762880178.087213,1.81
1762880178.093523,1.65
1762880178.0998132,1.35
1762880178.106035,1.79
1762880178.112263,1.37
1762880178.118464,1.42
1762880178.124827,1.67
1762880178.130928,1.24
1762880178.1372259,1.65
1762880178.143554,1.53
1762880178.149675,1.27
1762880178.1559691,1.7
1762880178.162266,1.33
1762880178.1685052,1.45
1762880178.174691,1.71
1762880178.1809049,1.24
1762880178.187284,1.64
1762880178.193876,1.55
1762880178.20266,1.3
1762880178.220116,1.76
1762880178.236366,1.37
1762880178.2369852,1.48
1762880178.2371688,1.74
1762880178.237354,1.28
1762880178.237535,1.68
1762880178.274549,1.58
1762880178.278752,1.32
1762880178.281271,1.8
1762880178.281812,1.41
1762880178.282305,1.49
1762880178.283092,1.73
1762880178.283349,1.28
1762880178.287317,1.68
1762880178.2934778,1.61
1762880178.3008692,1.33
1762880178.3059242,1.77
1762880178.312175,1.4
1762880178.3186429,1.49
1762880178.325245,1.75
1762880178.3309429,1.26
1762880178.337198,1.65
1762880178.343458,1.6
1762880178.349666,1.36
1762880178.355977,1.77
1762880178.36221,1.4
1762880178.36846,1.47
1762880178.374711,1.72
1762880178.3809001,1.3
1762880178.387109,1.69
1762880178.393465,1.6
1762880178.3997078,1.33
1762880178.406026,1.75
1762880178.4122822,1.4
1762880178.418365,1.55
1762880178.42474,1.82
1762880178.4308941,1.38
1762880178.437134,1.77
1762880178.444496,1.68
1762880178.449624,1.53
1762880178.4558778,2.03
1762880178.462157,1.58
1762880178.468408,1.57
1762880178.474887,1.93
1762880178.480868,1.48
1762880178.4872,1.68
1762880178.493383,1.52
1762880178.499635,1.33
1762880178.505879,1.78
1762880178.5120928,1.33
1762880178.518425,1.45
1762880178.524683,1.71
1762880178.530955,1.26
1762880178.53715,1.66
1762880178.543526,1.55
1762880178.549653,1.26
1762880178.555849,1.73
1762880178.5622048,1.42
1762880178.568442,1.5
1762880178.5746539,1.73
1762880178.580885,1.29
1762880178.5871518,1.68
1762880178.5934021,1.59
1762880178.599715,1.34
1762880178.605886,1.86
1762880178.612193,1.63
1762880178.618403,2.07
1762880178.624607,3.15
1762880178.6309178,3.16
1762880178.637119,3.17
1762880178.643816,3.17
1762880178.649665,2.36
1762880178.655906,1.06
1762880178.662198,1.13
1762880178.668422,1.79
1762880178.6747541,1.78
1762880178.680895,1.08
1762880178.6872058,1.59
1762880178.6933482,1.6
1762880178.69963,1.25
1762880178.705926,1.68
1762880178.712168,1.35
1762880178.7183318,1.47
1762880178.724695,1.71
1762880178.730869,1.25
1762880178.7375412,1.65
1762880178.744668,1.56
1762880178.74979,1.31
1762880178.7558138,1.78
1762880178.7620428,1.43
1762880178.76838,1.52
1762880178.7746089,1.75
1762880178.780771,1.32
1762880178.787027,1.74
1762880178.793372,1.66
1762880178.799546,1.39
1762880178.805923,1.87
1762880178.812047,1.5
1762880178.818346,1.62
1762880178.824571,1.94
1762880178.830913,1.49
1762880178.837087,1.88
1762880178.8433652,1.84
1762880178.849579,1.57
1762880178.8558238,2.03
1762880178.8621068,1.68
1762880178.8684,1.78
1762880178.874582,2.07
1762880178.880936,1.59
1762880178.887179,1.97
1762880178.893474,1.88
1762880178.899519,1.57
1762880178.90591,2.0
1762880178.912158,1.57
1762880178.91839,1.58
1762880178.924557,1.76
1762880178.931,1.26
1762880178.937058,1.65
1762880178.943421,1.53
1762880178.949522,1.24
1762880178.9558241,1.7
1762880178.962105,1.28
1762880178.968223,1.34
1762880178.974736,1.64
1762880178.980816,1.23
1762880178.98728,1.55
1762880178.993684,1.46
1762880178.999508,1.24
1762880179.0059829,1.7
1762880179.0120928,1.31
1762880179.018354,1.4
1762880179.0247831,1.65
1762880179.030853,1.2
1762880179.037045,1.64
1762880179.043305,1.55
1762880179.049529,1.27
1762880179.055789,1.72
1762880179.061962,1.38
1762880179.068286,1.47
1762880179.074715,1.69
1762880179.080717,1.24
1762880179.087001,1.68
1762880179.09339,1.58
1762880179.099653,1.3
1762880179.105748,1.75
1762880179.112006,1.32
1762880179.118237,1.46
1762880179.1245089,1.76
1762880179.1307719,1.27
1762880179.1370041,1.62
1762880179.1432939,1.53
1762880179.1494799,1.3
1762880179.155812,1.76
1762880179.16214,1.36
1762880179.168204,1.43
1762880179.174633,1.68
1762880179.180754,1.26
1762880179.1870878,1.65
1762880179.193728,1.54
1762880179.199489,1.29
1762880179.2058408,1.74
1762880179.211982,1.36
1762880179.218312,1.48
1762880179.224482,1.74
1762880179.230796,1.28
1762880179.237034,1.65
1762880179.2432199,1.56
1762880179.24944,1.31
1762880179.255776,1.77
1762880179.262041,1.37
1762880179.268163,1.45
1762880179.27443,1.73
1762880179.2809129,1.31
1762880179.2869608,1.7
1762880179.293317,1.65
1762880179.2994401,1.46
1762880179.305813,1.88
1762880179.311958,1.53
1762880179.318275,1.72
1762880179.324619,1.97
1762880179.330761,1.39
1762880179.3369548,1.77
1762880179.343468,1.74
1762880179.349461,1.4
1762880179.355774,1.75
1762880179.3620338,1.34
1762880179.368192,1.44
1762880179.374599,1.69
1762880179.380776,1.24
1762880179.386988,1.63
1762880179.393458,1.54
1762880179.3994398,1.29
1762880179.405665,1.72
1762880179.412013,1.37
1762880179.418208,1.47
1762880179.424484,1.7
1762880179.430702,1.26
1762880179.4369228,1.65
1762880179.4432828,1.57
1762880179.449497,1.33
1762880179.455775,1.8
1762880179.461901,1.42
1762880179.4681659,1.53
1762880179.4744372,1.92
1762880179.4806652,1.71
1762880179.487029,2.76
1762880179.493292,3.16
1762880179.4994292,3.17
1762880179.505752,3.17
1762880179.511986,2.86
1762880179.5184472,1.09
1762880179.524409,1.21
1762880179.530663,1.5
1762880179.536949,1.81
1762880179.5524611,1.45
1762880179.55321,1.23
1762880179.5759628,1.73
1762880179.586356,1.32
1762880179.58655,1.41
1762880179.6128151,1.68
1762880179.6150458,1.24
1762880179.615365,1.64
1762880179.615463,1.56
1762880179.6155388,1.28
1762880179.61568,1.75
1762880179.6158102,1.37
1762880179.618203,1.47
1762880179.624489,1.75
1762880179.644004,1.3
1762880179.644235,1.7
1762880179.644423,1.63
1762880179.6494908,1.39
1762880179.655838,1.83
1762880179.661967,1.48
1762880179.6681652,1.59
1762880179.6744819,1.87
1762880179.6806579,1.42
1762880179.686898,1.78
1762880179.6932611,1.78
1762880179.699373,1.55
1762880179.705655,2.01
1762880179.711904,1.65
1762880179.718184,1.78
1762880179.7244549,2.08
1762880179.730676,1.59
1762880179.7369092,1.98
1762880179.743142,1.94
1762880179.74937,1.68
1762880179.755615,2.1
1762880179.761885,1.7
1762880179.768163,1.72
1762880179.774646,1.93
1762880179.7806451,1.41
1762880179.786916,1.73
1762880179.793247,1.64
1762880179.799395,1.33
1762880179.805823,1.7
1762880179.811904,1.35
1762880179.818063,1.43
1762880179.8243551,1.63
1762880179.8305972,1.18
1762880179.8369029,1.59
1762880179.843162,1.51
1762880179.8493319,1.2
1762880179.855691,1.67
1762880179.8618612,1.34
1762880179.868119,1.4
1762880179.874464,1.65
1762880179.8806772,1.22
1762880179.886843,1.59
1762880179.893235,1.51
1762880179.899402,1.26
1762880179.905747,1.74
1762880179.9118788,1.41
1762880179.918101,1.43
1762880179.924576,1.67
1762880179.930645,1.29
1762880179.936845,1.65
1762880179.943169,1.55
1762880179.949412,1.32
1762880179.955719,1.76
1762880179.961865,1.4
1762880179.9681978,1.49
1762880179.974488,1.73
1762880179.980581,1.26
1762880179.9868832,1.65
1762880179.99312,1.57
1762880179.999559,1.32
1762880180.005729,1.75
1762880180.011889,1.35
1762880180.018186,1.46
1762880180.024889,1.74
1762880180.030633,1.26
1762880180.036875,1.62
1762880180.043495,1.56
1762880180.0493708,1.3
1762880180.0557702,1.74
1762880180.0618398,1.36
1762880180.06813,1.47
1762880180.074377,1.72
1762880180.0805938,1.25
1762880180.086894,1.64
1762880180.093235,1.58
1762880180.0993102,1.31
1762880180.1065621,1.76
1762880180.130788,1.4
1762880180.13098,1.46
1762880180.131136,1.72
1762880180.13182,1.3
1762880180.137303,1.66
1762880180.143517,1.55
1762880180.1493309,1.33
1762880180.155715,1.8
1762880180.161878,1.49
1762880180.168224,1.62
1762880180.1745,1.83
1762880180.180607,1.4
1762880180.186814,1.91
1762880180.193079,1.83
1762880180.199292,1.42
1762880180.205594,1.87
1762880180.2116978,1.59
1762880180.2179892,1.55
1762880180.224319,1.67
1762880180.23056,1.26
1762880180.2368572,1.65
1762880180.243072,1.54
1762880180.2492878,1.26
1762880180.2555451,1.72
1762880180.2617679,1.38
1762880180.268089,1.42
1762880180.274343,1.67
1762880180.2806048,1.26
1762880180.2868118,1.63
1762880180.2930582,1.53
1762880180.2993338,1.28
1762880180.30573,1.78
1762880180.311966,1.41
1762880180.318177,1.46
1762880180.3242922,1.73
1762880180.330561,1.33
1762880180.33683,1.71
1762880180.343134,1.67
1762880180.3493278,1.61
1762880180.355581,2.51
1762880180.3618171,3.05
1762880180.368039,3.17
1762880180.374314,3.17
1762880180.380512,3.16
1762880180.386795,1.82
1762880180.3930829,0.72
1762880180.3991969,1.39
1762880180.4055412,2.12
1762880180.411797,1.24
1762880180.41797,1.25
1762880180.424243,1.77
1762880180.430457,1.3
1762880180.4367979,1.53
1762880180.442998,1.51
1762880180.449258,1.32
1762880180.4555762,1.74
1762880180.4618082,1.31
1762880180.467985,1.43
1762880180.4742131,1.74
1762880180.48049,1.3
1762880180.4868338,1.62
1762880180.492982,1.58
1762880180.499224,1.35
1762880180.5054898,1.77
1762880180.5118651,1.43
1762880180.517977,1.53
1762880180.524262,1.79
1762880180.5305111,1.35
1762880180.5367901,1.73
1762880180.54301,1.72
1762880180.54937,1.48
1762880180.555493,1.89
1762880180.561779,1.56
1762880180.568026,1.68
1762880180.574233,1.95
1762880180.5804842,1.54
1762880180.586776,1.96
1762880180.593018,1.9
1762880180.59918,1.63
1762880180.605624,2.08
1762880180.6117408,1.72
1762880180.617891,1.81
1762880180.624189,2.1
1762880180.630493,1.6
1762880180.63678,1.95
1762880180.643163,1.83
1762880180.649201,1.47
1762880180.6554408,1.84
1762880180.661644,1.42
1762880180.6679811,1.5
1762880180.6741529,1.72
1762880180.6804879,1.22
1762880180.686644,1.55
1762880180.693086,1.52
1762880180.699098,1.24
1762880180.705558,1.63
1762880180.71171,1.3
1762880180.717952,1.38
1762880180.7242072,1.58
1762880180.7304251,1.18
1762880180.736692,1.62
1762880180.742979,1.51
1762880180.7491908,1.18
1762880180.7554739,1.67
1762880180.761698,1.36
1762880180.767916,1.43
1762880180.77423,1.67
1762880180.780512,1.27
1762880180.786654,1.61
1762880180.793084,1.51
1762880180.799201,1.28
1762880180.805716,1.74
1762880180.811646,1.4
1762880180.817973,1.44
1762880180.824196,1.66
1762880180.830384,1.24
1762880180.836643,1.68
1762880180.842923,1.59
1762880180.849206,1.28
1762880180.855484,1.72
1762880180.861771,1.38
1762880180.867912,1.46
1762880180.8741891,1.7
1762880180.880405,1.25
1762880180.8866901,1.63
1762880180.893004,1.56
1762880180.8991308,1.3
1762880180.905406,1.72
1762880180.9116302,1.37
1762880180.9178681,1.46
1762880180.924155,1.73
1762880180.9303539,1.25
1762880180.936633,1.59
1762880180.9430451,1.56
1762880180.949143,1.32
1762880180.955356,1.76
1762880180.961691,1.37
1762880180.9678879,1.44
1762880180.9742,1.72
1762880180.980389,1.29
1762880180.9866729,1.64
1762880180.992934,1.56
1762880180.9993138,1.28
1762880181.005535,1.75
1762880181.011627,1.42
1762880181.018025,1.45
1762880181.024291,1.72
1762880181.030538,1.31
1762880181.0366862,1.66
1762880181.043029,1.63
1762880181.049196,1.44
1762880181.055522,1.89
1762880181.061625,1.53
1762880181.067821,1.65
1762880181.0741801,1.96
1762880181.080302,1.48
1762880181.086744,1.76
1762880181.093057,1.74
1762880181.099276,1.43
1762880181.10631,1.8
1762880181.1115992,1.39
1762880181.1179368,1.43
1762880181.1243432,1.73
1762880181.130486,1.28
1762880181.136652,1.6
1762880181.147994,1.52
1762880181.16928,1.29
1762880181.2097569,1.75
1762880181.2105868,1.41
1762880181.210711,1.45
1762880181.210902,1.7
1762880181.2110562,1.29
1762880181.211143,1.67
1762880181.211262,1.59
1762880181.2113678,1.31
1762880181.211492,1.77
1762880181.211603,1.44
1762880181.2179,1.5
1762880181.2247272,1.82
1762880181.230361,1.51
1762880181.236606,2.16
1762880181.243071,2.87
1762880181.2491279,3.16
1762880181.256105,3.17
1762880181.2615721,3.17
1762880181.267883,2.67
1762880181.274444,1.0
1762880181.280297,0.91
1762880181.286582,2.01
1762880181.292816,1.69
1762880181.299135,1.13
1762880181.305352,1.71
1762880181.3115578,1.44
1762880181.317774,1.39
1762880181.324206,1.66
1762880181.330323,1.29
1762880181.336551,1.64
1762880181.342845,1.55
1762880181.349024,1.27
1762880181.355479,1.74
1762880181.361554,1.45
1762880181.367806,1.49
1762880181.3741848,1.74
1762880181.3802938,1.3
1762880181.3864892,1.65
1762880181.3927948,1.65
1762880181.399074,1.41
1762880181.405313,1.83
1762880181.4115489,1.46
1762880181.417755,1.54
1762880181.4241989,1.85
1762880181.430424,1.43
1762880181.436533,1.8
1762880181.442959,1.8
1762880181.449058,1.52
1762880181.4553301,1.96
1762880181.461611,1.69
1762880181.467956,1.77
1762880181.4740748,2.04
1762880181.480312,1.6
1762880181.486528,1.98
1762880181.492882,1.96
1762880181.4990551,1.66
1762880181.505337,2.11
1762880181.511601,1.76
1762880181.5179882,1.76
1762880181.524092,2.0
1762880181.530276,1.52
1762880181.536587,1.79
1762880181.542895,1.68
1762880181.5490491,1.34
1762880181.5553422,1.72
1762880181.561745,1.39
1762880181.568157,1.42
1762880181.574146,1.65
1762880181.580383,1.23
1762880181.586601,1.58
1762880181.592941,1.5
1762880181.599075,1.24
1762880181.605311,1.67
1762880181.611574,1.33
1762880181.617711,1.42
1762880181.624158,1.68
1762880181.6304262,1.21
1762880181.636609,1.59
1762880181.6429598,1.57
1762880181.6490922,1.29
1762880181.655411,1.74
1762880181.6615438,1.35
1762880181.667823,1.39
1762880181.674079,1.68
1762880181.680434,1.28
1762880181.6866171,1.65
1762880181.6929479,1.58
1762880181.699127,1.3
1762880181.7052858,1.74
1762880181.711541,1.4
1762880181.7177641,1.46
1762880181.7241228,1.73
1762880181.7302241,1.28
1762880181.736474,1.65
1762880181.742767,1.59
1762880181.748965,1.3
1762880181.755324,1.76
1762880181.7615511,1.42
1762880181.767763,1.42
1762880181.774013,1.7
1762880181.7803578,1.27
1762880181.786536,1.65
1762880181.79289,1.59
1762880181.798934,1.31
1762880181.80526,1.75
1762880181.81151,1.38
1762880181.817755,1.44
1762880181.824023,1.74
1762880181.830272,1.3
1762880181.836521,1.62
1762880181.84274,1.56
1762880181.848973,1.32
1762880181.855524,1.78
1762880181.861471,1.39
1762880181.867732,1.44
1762880181.8746371,1.75
1762880181.880148,1.3
1762880181.8864908,1.62
1762880181.892698,1.59
1762880181.8990238,1.33
1762880181.905287,1.77
1762880181.911551,1.5
1762880181.9177752,1.57
1762880181.924083,1.83
1762880181.930264,1.42
1762880181.936481,1.83
1762880181.9427352,1.84
1762880181.949074,1.53
1762880181.955351,1.88
1762880181.961612,1.53
1762880181.967874,1.57
1762880181.97398,1.78
1762880181.980242,1.28
1762880181.986451,1.6
1762880181.992773,1.55
1762880181.9990149,1.28
1762880182.005468,1.74
1762880182.011647,1.41
1762880182.0176861,1.43
1762880182.0239801,1.72
1762880182.0302,1.3
1762880182.036535,1.62
1762880182.042746,1.59
1762880182.048953,1.31
1762880182.0552619,1.73
1762880182.0614421,1.43
1762880182.067841,1.51
1762880182.073977,1.74
1762880182.080393,1.32
1762880182.0864809,1.67
1762880182.092869,1.65
1762880182.099009,1.53
1762880182.10516,2.33
1762880182.111446,2.75
1762880182.117694,3.17
1762880182.124028,3.17
1762880182.1302872,3.17
1762880182.136479,2.78
1762880182.142814,0.89
1762880182.148866,0.97
1762880182.155159,2.1
1762880182.161331,1.46
1762880182.167697,1.25
1762880182.174083,1.7
1762880182.180125,1.33
1762880182.18646,1.58
1762880182.192694,1.51
1762880182.1989582,1.24
1762880182.205195,1.74
1762880182.211406,1.41
1762880182.217781,1.4
1762880182.22401,1.68
1762880182.2303622,1.31
1762880182.236481,1.65
1762880182.24299,1.58
1762880182.248925,1.32
1762880182.255167,1.79
1762880182.261535,1.45
1762880182.2677991,1.48
1762880182.274118,1.81
1762880182.280312,1.38
1762880182.2864902,1.69
1762880182.293001,1.67
1762880182.299069,1.46
1762880182.3053062,1.9
1762880182.3115048,1.56
1762880182.3178828,1.64
1762880182.323968,1.94
1762880182.3302138,1.51
1762880182.3364859,1.91
1762880182.3427598,1.9
1762880182.349168,1.58
1762880182.355272,2.06
1762880182.361568,1.75
1762880182.367656,1.78
1762880182.37425,2.07
1762880182.380074,1.6
1762880182.3863318,1.92
1762880182.3927171,1.82
1762880182.398852,1.46
1762880182.4051719,1.9
1762880182.4113548,1.51
1762880182.417624,1.46
1762880182.423892,1.69
1762880182.430076,1.23
1762880182.4364002,1.56
1762880182.442684,1.53
1762880182.448807,1.22
1762880182.455154,1.66
1762880182.4613812,1.32
1762880182.467562,1.36
1762880182.4738839,1.63
1762880182.480126,1.16
1762880182.4864151,1.56
1762880182.492615,1.54
1762880182.498872,1.2
1762880182.505242,1.67
1762880182.5112698,1.37
1762880182.5176792,1.38
1762880182.5243452,1.67
1762880182.5302532,1.23
1762880182.536322,1.58
1762880182.542567,1.57
1762880182.548835,1.3
1762880182.555115,1.73
1762880182.561412,1.35
1762880182.5675871,1.42
1762880182.573975,1.75
1762880182.580145,1.28
1762880182.5863302,1.59
1762880182.592669,1.56
1762880182.598895,1.3
1762880182.605085,1.74
1762880182.611346,1.4
1762880182.61785,1.42
1762880182.623842,1.71
1762880182.630254,1.24
1762880182.636388,1.58
1762880182.64259,1.57
1762880182.648927,1.28
1762880182.6550798,1.72
1762880182.661304,1.38
1762880182.667785,1.39
1762880182.673882,1.72
1762880182.680081,1.29
1762880182.686337,1.6
1762880182.6925719,1.54
1762880182.6987672,1.3
1762880182.705097,1.75
1762880182.7180102,1.38
1762880182.7496,1.4
1762880182.750955,1.72
1762880182.751117,1.28
1762880182.7555158,1.59
1762880182.771756,1.57
1762880182.775253,1.3
1762880182.775786,1.75
1762880182.775934,1.41
1762880182.776024,1.39
1762880182.776105,1.73
1762880182.780031,1.3
1762880182.792228,1.64
1762880182.792604,1.61
1762880182.798805,1.35
1762880182.805195,1.89
1762880182.811471,1.54
1762880182.8176231,1.56
1762880182.8239942,1.92
1762880182.8300989,1.53
1762880182.836289,1.78
1762880182.842479,1.69
1762880182.848798,1.45
1762880182.855149,1.87
1762880182.861227,1.42
1762880182.8675141,1.39
1762880182.873803,1.71
1762880182.879998,1.27
1762880182.886274,1.57
1762880182.892593,1.55
1762880182.898793,1.28
1762880182.905015,1.71
1762880182.911384,1.38
1762880182.9175339,1.4
1762880182.924,1.71
1762880182.930057,1.28
1762880182.9363022,1.62
1762880182.9425879,1.6
1762880182.9487302,1.3
1762880182.955049,1.77
1762880182.961183,1.44
1762880182.967604,1.47
1762880182.9741209,1.73
1762880182.9800372,1.36
1762880182.9863,1.91
1762880182.9924679,2.32
1762880182.998827,2.87
1762880183.0052538,3.17
1762880183.011345,3.17
1762880183.0175428,3.17
1762880183.023944,2.16
1762880183.0300329,0.51
1762880183.0361931,1.58
1762880183.042516,1.94
1762880183.048745,1.22
1762880183.05503,1.59
1762880183.061259,1.4
1762880183.067457,1.41
1762880183.073803,1.65
1762880183.079979,1.22
1762880183.0861812,1.58
1762880183.092653,1.57
1762880183.098818,1.28
1762880183.105025,1.71
1762880183.111274,1.4
1762880183.117704,1.45
1762880183.1237812,1.75
1762880183.1300411,1.3
1762880183.1363,1.63
1762880183.142441,1.64
1762880183.148808,1.33
1762880183.1550741,1.8
1762880183.161234,1.48
1762880183.1675332,1.51
1762880183.173961,1.83
1762880183.179924,1.42
1762880183.1861708,1.75
1762880183.19239,1.74
1762880183.198682,1.47
1762880183.204957,1.96
1762880183.211141,1.66
1762880183.217495,1.71
1762880183.223729,2.05
1762880183.2300081,1.59
1762880183.23624,1.93
1762880183.242333,1.96
1762880183.2486348,1.64
1762880183.2549639,2.08
1762880183.261157,1.79
1762880183.267444,1.76
1762880183.2736871,2.02
1762880183.2799392,1.52
1762880183.286159,1.79
1762880183.292495,1.73
1762880183.298704,1.38
1762880183.304961,1.76
1762880183.311169,1.38
1762880183.317385,1.38
1762880183.3239229,1.67
1762880183.330009,1.19
1762880183.336168,1.53
1762880183.3423831,1.54
1762880183.348755,1.23
1762880183.355098,1.63
1762880183.3611672,1.33
1762880183.367462,1.37
1762880183.3739,1.66
1762880183.379984,1.19
1762880183.386181,1.56
1762880183.392496,1.57
1762880183.398767,1.21
1762880183.405299,1.65
1762880183.4111822,1.4
1762880183.4175081,1.41
1762880183.423779,1.71
1762880183.4299378,1.27
1762880183.436239,1.57
1762880183.4424691,1.58
1762880183.448694,1.29
1762880183.4550688,1.73
1762880183.4612448,1.42
1762880183.467697,1.41
1762880183.473799,1.71
1762880183.4800599,1.3
1762880183.4862232,1.6
1762880183.49237,1.55
1762880183.498744,1.26
1762880183.504972,1.76
1762880183.511165,1.44
1762880183.517578,1.42
1762880183.524242,1.74
1762880183.529789,1.28
1762880183.5362072,1.59
1762880183.5425122,1.55
1762880183.548673,1.25
1762880183.554898,1.76
1762880183.561196,1.42
1762880183.5674481,1.38
1762880183.573898,1.73
1762880183.579859,1.3
1762880183.586221,1.61
1762880183.592405,1.62
1762880183.598819,1.27
1762880183.604953,1.71
1762880183.611179,1.45
1762880183.617439,1.47
1762880183.623847,1.76
1762880183.630066,1.26
1762880183.636288,1.58
1762880183.6424232,1.64
1762880183.648618,1.31
1762880183.654997,1.75
1762880183.66124,1.44
1762880183.667337,1.43
1762880183.6736808,1.73
1762880183.679852,1.3
1762880183.686134,1.66
1762880183.692516,1.63
1762880183.698695,1.35
1762880183.7049658,1.89
1762880183.711209,1.6
1762880183.717556,1.61
1762880183.723625,1.93
1762880183.73011,1.54
1762880183.736304,1.82
1762880183.742403,1.68
1762880183.748808,1.44
1762880183.755083,1.94
1762880183.761272,1.48
1762880183.767582,1.42
1762880183.7736902,1.72
1762880183.7798889,1.21
1762880183.786195,1.58
1762880183.792365,1.65
1762880183.79871,1.32
1762880183.804946,1.74
1762880183.811231,1.41
1762880183.817558,1.4
1762880183.8236642,1.74
1762880183.829775,1.27
1762880183.836193,1.6
1762880183.842539,1.65
1762880183.8485582,1.29
1762880183.854913,1.76
1762880183.861093,1.49
1762880183.867319,1.49
1762880183.8737018,1.75
1762880183.879935,1.33
1762880183.8861032,1.8
1762880183.892498,2.06
1762880183.8986518,2.31
1762880183.9049559,3.17
1762880183.9110348,3.17
1762880183.917291,3.17
1762880183.923837,3.06
1762880183.929773,0.98
1762880183.936277,1.04
1762880183.9423418,1.82
1762880183.948676,1.54
1762880183.954875,1.68
1762880183.961313,1.3
1762880183.9673731,1.42
1762880183.9738922,1.72
1762880183.979891,1.25
1762880183.986172,1.59
1762880183.992367,1.59
1762880183.998639,1.28
1762880184.005002,1.72
1762880184.0113459,1.34
1762880184.0172968,1.43
1762880184.023764,1.77
1762880184.0298188,1.31
1762880184.036184,1.66
1762880184.0422819,1.66
1762880184.048707,1.33
1762880184.05543,1.8
1762880184.0611851,1.47
1762880184.067492,1.51
1762880184.073758,1.87
1762880184.079982,1.39
1762880184.086213,1.74
1762880184.092318,1.77
1762880184.098499,1.47
1762880184.104821,1.91
1762880184.11122,1.63
1762880184.117528,1.66
1762880184.123596,1.99
1762880184.129802,1.62
1762880184.1361659,1.96
1762880184.142414,1.96
1762880184.1486778,1.62
1762880184.15495,2.09
1762880184.1610339,1.79
1762880184.1675048,1.73
1762880184.173589,2.08
1762880184.1797729,1.58
1762880184.18617,1.83
1762880184.1924229,1.77
1762880184.198536,1.42
1762880184.20535,1.79
1762880184.2111309,1.44
1762880184.217249,1.39
1762880184.2236888,1.67
1762880184.229839,1.2
1762880184.236131,1.54
1762880184.261934,1.53
1762880184.28503,1.18
1762880184.285206,1.63
1762880184.285364,1.37
1762880184.285504,1.36
1762880184.28565,1.64
1762880184.285797,1.19
1762880184.2935731,1.53
1762880184.29376,1.52
1762880184.2992032,1.2
1762880184.304818,1.71
1762880184.311105,1.38
1762880184.317174,1.33
1762880184.3245828,1.69
1762880184.3297122,1.26
1762880184.335971,1.56
1762880184.342278,1.57
1762880184.3486001,1.24
1762880184.3548238,1.72
1762880184.361195,1.4
1762880184.367418,1.38
1762880184.373555,1.75
1762880184.3798022,1.31
1762880184.386078,1.56
1762880184.392344,1.56
1762880184.3984609,1.31
1762880184.405353,1.74
1762880184.410966,1.37
1762880184.417481,1.36
1762880184.42352,1.72
1762880184.429879,1.28
1762880184.4360902,1.58
1762880184.442225,1.59
1762880184.448587,1.28
1762880184.454911,1.7
1762880184.461086,1.4
1762880184.467215,1.43
1762880184.473548,1.76
1762880184.479787,1.27
1762880184.486069,1.57
1762880184.492338,1.6
1762880184.498563,1.3
1762880184.504958,1.73
1762880184.511155,1.4
1762880184.5172539,1.43
1762880184.5235462,1.79
1762880184.5298738,1.26
1762880184.536103,1.58
1762880184.5421371,1.64
1762880184.548598,1.3
1762880184.5549922,1.76
1762880184.561156,1.45
1762880184.567255,1.45
1762880184.573621,1.76
1762880184.579851,1.29
1762880184.586051,1.65
1762880184.592324,1.66
1762880184.5985138,1.34
1762880184.604875,1.82
1762880184.611146,1.52
1762880184.6173482,1.56
1762880184.623483,1.92
1762880184.629714,1.5
1762880184.636698,1.85
1762880184.642362,1.8
1762880184.648622,1.43
1762880184.654944,1.94
1762880184.661045,1.53
1762880184.667307,1.42
1762880184.673484,1.74
1762880184.679818,1.31
1762880184.685977,1.59
1762880184.692381,1.57
1762880184.698503,1.29
1762880184.7048278,1.78
1762880184.711149,1.42
1762880184.71715,1.41
1762880184.7235599,1.74
1762880184.7296598,1.3
1762880184.7360032,1.63
1762880184.7422268,1.63
1762880184.7485068,1.29
1762880184.754854,1.77
1762880184.7611,1.5
1762880184.7672498,1.45
1762880184.773542,1.77
1762880184.779658,1.36
1762880184.785975,1.73
1762880184.7923148,1.85
1762880184.798487,1.89
1762880184.8055549,3.14
1762880184.811188,3.17
1762880184.817292,3.17
1762880184.823461,3.17
1762880184.82974,2.4
1762880184.835999,1.01
1762880184.842274,1.34
1762880184.8484101,1.61
1762880184.855005,1.83
1762880184.861089,1.31
1762880184.8672771,1.4
1762880184.873444,1.78
1762880184.879728,1.25
1762880184.8860438,1.56
1762880184.892243,1.62
1762880184.898481,1.3
1762880184.906042,1.75
1762880184.9109771,1.43
1762880184.917283,1.43
1762880184.9234319,1.76
1762880184.9296498,1.3
1762880184.936037,1.67
1762880184.94232,1.71
1762880184.948481,1.34
1762880184.954765,1.78
1762880184.961073,1.51
1762880184.967426,1.54
1762880184.973589,1.87
1762880184.9796338,1.37
1762880184.9862442,1.71
1762880184.992051,1.77
1762880184.998396,1.44
1762880185.004744,1.95
1762880185.010863,1.68
1762880185.017141,1.63
1762880185.023499,2.02
1762880185.029622,1.59
1762880185.0365062,1.91
1762880185.042082,1.98
1762880185.0483131,1.62
1762880185.0546718,2.09
1762880185.060865,1.79
1762880185.067086,1.75
1762880185.0732858,2.1
1762880185.0795982,1.61
1762880185.087589,1.9
1762880185.0920372,1.86
1762880185.0982919,1.45
1762880185.104949,1.84
1762880185.1108758,1.49
1762880185.117033,1.41
1762880185.1233711,1.7
1762880185.129596,1.26
1762880185.135896,1.57
1762880185.14208,1.55
1762880185.148331,1.18
1762880185.1548102,1.67
1762880185.1608288,1.38
1762880185.167166,1.33
1762880185.1732988,1.69
1762880185.17957,1.26
1762880185.18606,1.53
1762880185.1919942,1.54
1762880185.1982348,1.23
1762880185.205158,1.72
1762880185.210881,1.41
1762880185.217039,1.37
1762880185.223426,1.71
1762880185.229553,1.25
1762880185.2359529,1.56
1762880185.241977,1.62
1762880185.248308,1.29
1762880185.255759,1.74
1762880185.260855,1.4
1762880185.267099,1.38
1762880185.273302,1.77
1762880185.279567,1.32
1762880185.286056,1.62
1762880185.29199,1.63
1762880185.29833,1.26
1762880185.3049679,1.74
1762880185.3108659,1.47
1762880185.3170261,1.39
1762880185.323333,1.73
1762880185.331316,1.31
1762880185.347426,1.6
1762880185.347619,1.62
1762880185.348626,1.29
1762880185.3573701,1.75
1762880185.3607721,1.42
1762880185.366986,1.38
1762880185.3732831,1.76
1762880185.3796191,1.31
1762880185.3858829,1.64
1762880185.392111,1.63
1762880185.3983219,1.26
1762880185.404982,1.72
1762880185.410767,1.41
1762880185.4170082,1.5
1762880185.423305,1.92
1762880185.429579,1.42
1762880185.435879,1.69
1762880185.4420202,1.81
1762880185.448193,1.52
1762880185.455094,1.95
1762880185.460864,1.54
1762880185.4669461,1.56
1762880185.473388,1.9
1762880185.4795818,1.3
1762880185.486102,1.57
1762880185.492065,1.64
1762880185.498477,1.26
1762880185.505126,1.63
1762880185.5109591,1.38
1762880185.516973,1.38
1762880185.523353,1.73
1762880185.5295732,1.28
1762880185.5358431,1.57
1762880185.542185,1.6
1762880185.548324,1.26
1762880185.554611,1.76
1762880185.561088,1.41
1762880185.5672278,1.38
1762880185.573432,1.75
1762880185.5796669,1.3
1762880185.585809,1.62
1762880185.592187,1.64
1762880185.598282,1.29
1762880185.6045902,1.92
1762880185.610821,1.83
1762880185.617065,2.31
1762880185.623441,3.17
1762880185.62958,3.17
1762880185.6361651,3.17
1762880185.642194,3.16
1762880185.6483068,1.54
1762880185.655263,1.07
1762880185.660776,1.47
1762880185.66709,1.66
1762880185.673314,1.7
1762880185.679589,1.14
1762880185.685782,1.56
1762880185.69197,1.57
1762880185.698219,1.13
1762880185.7046149,1.67
1762880185.710845,1.46
1762880185.716956,1.34
1762880185.723315,1.68
1762880185.7296178,1.26
1762880185.735738,1.58
