timestamp,ecg_value
1764746462.5397508,1.46
1764746462.5460649,1.33
1764746462.552427,1.3
1764746462.558557,1.26
1764746462.564834,1.24
1764746462.571187,1.23
1764746462.577252,1.14
1764746462.583518,1.41
1764746462.589864,1.45
1764746462.5960782,1.3
1764746462.60244,1.37
1764746462.608617,1.49
1764746462.614804,1.4
1764746462.621088,1.27
1764746462.627275,1.53
1764746462.6336482,1.9
1764746462.63981,2.06
1764746462.646046,1.95
1764746462.652503,1.89
1764746462.658562,1.56
1764746462.664851,1.47
1764746462.671165,1.38
1764746462.677335,1.43
1764746462.683698,1.46
1764746462.689787,1.27
1764746462.6959538,1.25
1764746462.702247,1.41
1764746462.708549,1.32
1764746462.714768,1.29
1764746462.720982,1.3
1764746462.7272398,1.24
1764746462.733529,1.25
1764746462.739746,1.06
1764746462.746012,1.06
1764746462.752484,1.86
1764746462.758535,2.53
1764746462.76479,2.8
1764746462.771018,2.5
1764746462.777225,0.94
1764746462.7835882,0.43
1764746462.789726,0.81
1764746462.7959838,0.97
1764746462.802293,0.95
1764746462.808714,1.02
1764746462.814795,1.08
1764746462.8212202,1.02
1764746462.827265,1.04
1764746462.83351,1.27
1764746462.839711,1.2
1764746462.845979,0.77
1764746462.852302,0.14
1764746462.858519,0.0
1764746462.864789,0.26
1764746462.871028,0.43
1764746462.877177,0.21
1764746462.8835049,0.29
1764746462.889717,0.82
1764746462.896051,0.91
1764746462.90231,0.79
1764746462.908588,0.8
1764746462.914818,1.02
1764746462.921095,1.13
1764746462.927202,1.02
1764746462.933644,1.17
1764746462.939944,1.14
1764746462.946267,1.04
1764746462.952241,1.19
1764746462.958653,1.09
1764746462.970132,1.17
1764746462.999993,1.27
1764746463.0137632,1.05
1764746463.01983,1.21
1764746463.0212932,1.59
1764746463.042042,1.4
1764746463.04433,1.47
1764746463.044548,1.35
1764746463.047402,1.38
1764746463.047766,1.46
1764746463.048363,1.22
1764746463.048596,1.47
1764746463.048803,1.87
1764746463.0491562,1.68
1764746463.052255,1.72
1764746463.0585852,1.66
1764746463.064806,1.69
1764746463.074223,1.93
1764746463.0774689,1.87
1764746463.083884,2.07
1764746463.0900328,2.46
1764746463.096565,1.94
1764746463.1046772,1.66
1764746463.108581,1.83
1764746463.114806,1.46
1764746463.1223931,1.21
1764746463.127297,1.15
1764746463.133474,1.21
1764746463.139835,0.9
1764746463.1461031,0.8
1764746463.15255,1.05
1764746463.1584482,1.02
1764746463.164722,1.24
1764746463.170954,1.67
1764746463.177247,1.59
1764746463.183458,1.61
1764746463.189722,1.79
1764746463.195978,2.16
1764746463.202144,3.08
1764746463.2083251,3.15
1764746463.214756,3.12
1764746463.220897,2.1
1764746463.227078,1.22
1764746463.233479,1.78
1764746463.2397308,2.0
1764746463.246125,1.82
1764746463.252268,1.91
1764746463.258423,1.95
1764746463.264747,2.07
1764746463.27107,2.2
1764746463.277159,2.04
1764746463.283533,2.02
1764746463.2898371,2.04
1764746463.2961018,1.63
1764746463.302183,1.61
1764746463.308577,1.9
1764746463.314759,2.03
1764746463.320914,1.98
1764746463.327156,1.87
1764746463.333618,1.99
1764746463.339838,2.04
1764746463.3463209,1.97
1764746463.352268,1.88
1764746463.358547,1.58
1764746463.364914,1.52
1764746463.37104,1.71
1764746463.377124,1.73
1764746463.3834429,1.63
1764746463.389769,1.49
1764746463.3959029,1.57
1764746463.402325,1.86
1764746463.408374,2.3
1764746463.414688,1.8
1764746463.420974,1.16
1764746463.427094,1.29
1764746463.43347,1.67
1764746463.4396129,1.89
1764746463.44586,2.3
1764746463.452157,2.78
1764746463.458376,3.13
1764746463.464659,3.16
1764746463.470861,2.64
1764746463.477129,1.27
1764746463.483417,1.16
1764746463.4897642,1.85
1764746463.49605,1.98
1764746463.50225,1.46
1764746463.5085309,1.27
1764746463.514716,1.62
1764746463.521218,1.66
1764746463.527099,1.28
1764746463.533412,1.22
1764746463.539659,1.28
1764746463.545891,1.19
1764746463.552151,1.16
1764746463.5583842,1.13
1764746463.564764,1.21
1764746463.5709682,1.06
1764746463.5771708,0.89
1764746463.5834749,1.16
1764746463.589615,1.02
1764746463.5961118,0.93
1764746463.602261,1.09
1764746463.60859,1.14
1764746463.614615,1.29
1764746463.6209128,1.2
1764746463.627182,0.92
1764746463.633485,1.28
1764746463.6397388,2.02
1764746463.646058,2.92
1764746463.652193,3.14
1764746463.658325,2.42
1764746463.6647308,1.26
1764746463.670937,1.03
1764746463.677208,1.2
1764746463.683392,1.19
1764746463.689617,1.07
1764746463.6958458,1.06
1764746463.702378,1.04
1764746463.708431,1.1
1764746463.714696,1.35
1764746463.720883,1.58
1764746463.727179,1.49
1764746463.733346,1.22
1764746463.7395542,1.35
1764746463.74595,1.43
1764746463.752207,1.48
1764746463.758303,1.32
1764746463.764651,0.72
1764746463.7709491,0.37
1764746463.777122,0.42
1764746463.78328,0.47
1764746463.789768,0.54
1764746463.795941,0.71
1764746463.802156,0.96
1764746463.80837,1.07
1764746463.8148491,1.39
1764746463.820964,1.74
1764746463.82705,1.91
1764746463.833329,1.79
1764746463.8394392,1.7
1764746463.84581,1.67
1764746463.852045,1.65
1764746463.8582451,1.55
1764746463.864554,1.48
1764746463.870829,1.63
1764746463.877082,1.6
1764746463.883391,1.51
1764746463.8896132,1.52
1764746463.896035,1.41
1764746463.9020932,1.46
1764746463.90827,1.7
1764746463.91468,1.78
1764746463.920894,1.66
1764746463.9270558,1.59
1764746463.93327,1.77
1764746463.939518,1.76
1764746463.94592,1.62
1764746463.952116,1.73
1764746463.958213,1.71
1764746463.9646358,1.7
1764746463.970804,1.88
1764746463.976976,1.74
1764746463.983614,1.86
1764746463.9895198,1.91
1764746463.995708,1.74
1764746464.002539,1.69
1764746464.00831,1.49
1764746464.014503,1.31
1764746464.020881,1.35
1764746464.027075,1.3
1764746464.036984,1.3
1764746464.039476,1.22
1764746464.045641,1.41
1764746464.052042,1.63
1764746464.058273,1.19
1764746464.06452,0.91
1764746464.071226,1.03
1764746464.0769851,1.16
1764746464.087436,1.66
1764746464.089633,2.61
1764746464.095828,3.07
1764746464.1047838,3.02
1764746464.10832,2.34
1764746464.114557,1.11
1764746464.1222248,1.08
1764746464.127139,1.43
1764746464.13325,1.51
1764746464.1395252,1.17
1764746464.145808,1.08
1764746464.154336,1.33
1764746464.1583302,1.21
1764746464.1645792,1.23
1764746464.171391,1.35
1764746464.177081,1.2
1764746464.1832771,1.29
1764746464.189538,1.35
1764746464.195861,1.25
1764746464.203271,1.33
1764746464.208253,1.39
1764746464.214619,1.42
1764746464.220787,1.47
1764746464.227016,1.36
1764746464.233312,1.31
1764746464.2394629,1.36
1764746464.24576,1.47
1764746464.253266,1.44
1764746464.2581482,1.34
1764746464.264526,1.51
1764746464.270764,1.57
1764746464.277017,1.47
1764746464.28336,1.53
1764746464.289504,1.72
1764746464.295699,1.61
1764746464.302784,1.62
1764746464.308224,1.75
1764746464.314414,1.84
1764746464.32077,1.82
1764746464.327038,1.78
1764746464.3333251,1.87
1764746464.339438,1.96
1764746464.345661,1.89
1764746464.35201,2.06
1764746464.358217,2.25
1764746464.364629,1.94
1764746464.370716,1.39
1764746464.376915,1.12
1764746464.38363,1.45
1764746464.389645,1.49
1764746464.395757,1.46
1764746464.40197,1.88
1764746464.408211,2.07
1764746464.414758,1.92
1764746464.420851,1.69
1764746464.426938,1.84
1764746464.433208,1.88
1764746464.4396229,1.56
1764746464.445758,1.56
1764746464.452062,1.84
1764746464.4582138,1.77
1764746464.464568,1.71
1764746464.470725,1.79
1764746464.477042,1.55
1764746464.483288,1.58
1764746464.489459,1.77
1764746464.495786,1.67
1764746464.502024,1.72
1764746464.50828,1.78
1764746464.5146618,1.69
1764746464.520716,1.71
1764746464.52691,1.78
1764746464.533218,2.48
1764746464.539444,3.16
1764746464.5457642,3.16
1764746464.552117,3.16
1764746464.558296,2.47
1764746464.564628,1.2
1764746464.5797608,1.5
1764746464.604838,1.73
1764746464.628725,1.62
1764746464.653761,1.56
1764746464.663698,1.67
1764746464.663857,1.69
1764746464.666204,1.47
1764746464.6711948,1.47
1764746464.671627,1.58
1764746464.672121,1.4
1764746464.6724749,1.49
1764746464.672884,1.71
1764746464.673163,1.32
1764746464.6735191,1.34
1764746464.673877,1.72
1764746464.674293,1.5
1764746464.6745422,1.09
1764746464.676911,1.19
1764746464.683739,1.49
1764746464.6958442,1.55
1764746464.696172,1.61
1764746464.7041,1.94
1764746464.7082171,1.97
1764746464.714459,1.92
1764746464.7214851,1.94
1764746464.7268748,1.82
1764746464.733203,1.84
1764746464.739538,1.88
1764746464.745879,1.85
1764746464.751953,1.96
1764746464.7582772,1.93
1764746464.76444,1.87
1764746464.770682,1.9
1764746464.776903,1.79
1764746464.7831192,1.8
1764746464.789436,1.75
1764746464.7956831,1.82
1764746464.801884,1.87
1764746464.808131,1.5
1764746464.814283,1.48
1764746464.820721,1.63
1764746464.826881,1.77
1764746464.833141,1.46
1764746464.8392909,1.29
1764746464.845709,1.61
1764746464.852154,1.87
1764746464.858009,1.54
1764746464.8642318,1.5
1764746464.870589,1.74
1764746464.876836,1.68
1764746464.883159,1.61
1764746464.8892858,1.49
1764746464.895617,1.47
1764746464.902014,1.59
1764746464.9081018,1.66
1764746464.914316,1.66
1764746464.920618,1.75
1764746464.926959,1.79
1764746464.9331682,1.86
1764746464.939287,2.01
1764746464.945626,1.96
1764746464.951864,1.56
1764746464.9580271,1.79
1764746464.964221,1.86
1764746464.9705548,1.76
1764746464.97683,1.37
1764746464.983072,1.5
1764746464.989262,1.98
1764746464.99567,2.27
1764746465.0018728,2.35
1764746465.008037,1.14
1764746465.014275,0.0
1764746465.020569,0.53
1764746465.026793,1.18
1764746465.033112,1.02
1764746465.039248,0.96
1764746465.045591,1.01
1764746465.051889,1.09
1764746465.058089,1.23
1764746465.064238,1.4
1764746465.070677,1.89
1764746465.076871,2.34
1764746465.0830998,1.86
1764746465.089329,1.4
1764746465.095607,1.58
1764746465.101909,1.77
1764746465.108038,1.54
1764746465.114274,1.43
1764746465.120606,1.47
1764746465.12673,1.46
1764746465.133052,1.61
1764746465.139228,1.75
1764746465.145489,1.82
1764746465.151804,2.03
1764746465.158033,2.01
1764746465.164248,1.92
1764746465.170561,1.94
1764746465.176793,1.9
1764746465.183032,1.88
1764746465.189321,1.65
1764746465.195505,1.49
1764746465.201788,1.5
1764746465.2079492,1.35
1764746465.214195,1.45
1764746465.22062,1.52
1764746465.226811,1.44
1764746465.232995,1.41
1764746465.2393332,1.45
1764746465.245565,1.42
1764746465.25188,1.44
1764746465.2580411,1.34
1764746465.2641962,1.41
1764746465.2706292,1.47
1764746465.276724,1.46
1764746465.2830238,1.52
1764746465.289189,1.52
1764746465.2954729,1.59
1764746465.301789,1.96
1764746465.308086,1.97
1764746465.314246,1.42
1764746465.3204858,1.37
1764746465.3267431,1.51
1764746465.332972,1.69
1764746465.339226,1.79
1764746465.345431,1.76
1764746465.3517618,1.65
1764746465.358114,1.59
1764746465.364192,1.52
1764746465.370646,1.41
1764746465.376711,1.34
1764746465.383062,1.36
1764746465.38927,1.37
1764746465.395369,1.28
1764746465.401867,1.21
1764746465.40798,1.24
1764746465.414109,1.27
1764746465.420469,1.27
1764746465.426732,1.3
1764746465.4329548,1.52
1764746465.439174,2.24
1764746465.445382,2.84
1764746465.451688,2.93
1764746465.457997,2.02
1764746465.464188,0.82
1764746465.470744,0.92
1764746465.4766989,1.17
1764746465.4829571,1.09
1764746465.4893172,0.96
1764746465.4956238,0.94
1764746465.50185,1.09
1764746465.508267,1.06
1764746465.5142882,0.94
1764746465.5205162,1.28
1764746465.5266628,1.52
1764746465.533066,1.41
1764746465.539147,1.07
1764746465.545461,1.21
1764746465.551659,1.66
1764746465.557833,1.77
1764746465.5641222,1.78
1764746465.570359,1.86
1764746465.576671,1.92
1764746465.582906,1.98
1764746465.589282,2.01
1764746465.595319,1.94
1764746465.601651,1.95
1764746465.607821,1.98
1764746465.614184,2.19
1764746465.620608,1.97
1764746465.626671,1.21
1764746465.632997,1.59
1764746465.639134,1.84
1764746465.645314,1.44
1764746465.651721,1.64
1764746465.657875,1.8
1764746465.66415,1.64
1764746465.670618,1.5
1764746465.676639,1.3
1764746465.682954,1.21
1764746465.689118,1.33
1764746465.69531,1.2
1764746465.7017128,1.26
1764746465.707864,1.28
1764746465.7141562,1.16
1764746465.720417,1.22
1764746465.726583,1.48
1764746465.732888,1.48
1764746465.739167,1.52
1764746465.745327,1.62
1764746465.751605,1.85
1764746465.757848,1.9
1764746465.764113,1.94
1764746465.770375,2.16
1764746465.77658,2.01
1764746465.782874,2.0
1764746465.7891252,2.03
1764746465.795328,1.65
1764746465.801642,1.51
1764746465.80785,1.58
1764746465.8141592,1.54
1764746465.8203788,1.4
1764746465.826661,1.13
1764746465.832855,1.09
1764746465.839095,1.33
1764746465.845349,1.41
1764746465.851558,1.4
1764746465.857974,1.42
1764746465.864107,1.5
1764746465.870363,1.55
1764746465.876537,1.37
1764746465.882918,1.91
1764746465.889102,2.92
1764746465.895272,3.11
1764746465.901744,2.71
1764746465.907854,1.49
1764746465.91414,0.93
1764746465.920358,1.47
1764746465.926591,1.55
1764746465.932891,1.56
1764746465.939122,1.25
1764746465.945247,0.96
1764746465.951631,1.1
1764746465.957849,1.23
1764746465.964108,1.35
1764746465.97031,1.43
1764746465.976516,1.43
1764746465.982829,1.42
1764746465.989017,1.52
1764746465.995296,1.45
1764746466.001576,1.53
1764746466.0078988,1.64
1764746466.014036,1.56
1764746466.020328,1.55
1764746466.026481,1.51
1764746466.032848,1.67
1764746466.03904,1.58
1764746466.0452218,1.41
1764746466.051532,1.55
1764746466.058005,1.52
1764746466.0641248,1.42
1764746466.0703418,1.55
1764746466.076598,1.43
1764746466.082873,1.42
1764746466.089203,1.5
1764746466.0952609,1.51
1764746466.101537,1.5
1764746466.107792,1.34
1764746466.113991,1.39
1764746466.12034,1.63
1764746466.126559,1.57
1764746466.1329,1.51
1764746466.139042,1.62
1764746466.1452742,1.6
1764746466.151523,1.59
1764746466.157822,1.6
1764746466.164105,1.57
1764746466.170261,1.82
1764746466.1766,1.81
1764746466.182857,1.76
1764746466.189078,2.03
1764746466.195258,2.03
1764746466.2015738,2.05
1764746466.207925,1.78
1764746466.214129,1.78
1764746466.2202802,2.18
1764746466.226509,2.12
1764746466.232779,1.87
1764746466.238986,1.96
1764746466.245183,1.89
1764746466.251581,1.47
1764746466.257814,0.83
1764746466.2639942,1.38
1764746466.270336,1.52
1764746466.276603,1.27
1764746466.282815,1.6
1764746466.288967,1.9
1764746466.295285,1.5
1764746466.301618,1.33
1764746466.307719,1.68
1764746466.314055,1.26
1764746466.32022,1.02
1764746466.326487,1.29
1764746466.332741,1.91
1764746466.338982,2.54
1764746466.345214,2.92
1764746466.351542,2.88
1764746466.357792,2.13
1764746466.364019,1.22
1764746466.370246,1.26
1764746466.376546,1.52
1764746466.382829,1.54
1764746466.390931,1.37
1764746466.400242,1.41
1764746466.426379,1.65
1764746466.4518578,1.52
1764746466.451987,1.69
1764746466.452091,1.84
1764746466.452189,1.25
1764746466.4522948,1.25
1764746466.452392,1.51
1764746466.45249,1.47
1764746466.452587,1.33
1764746466.458344,1.39
1764746466.4660852,1.56
1764746466.4750452,1.59
1764746466.476817,1.46
1764746466.482809,1.59
1764746466.489131,1.65
1764746466.4958231,1.52
1764746466.5020711,1.54
1764746466.50777,1.51
1764746466.513983,1.39
1764746466.520222,1.3
1764746466.526508,1.31
1764746466.532716,1.47
1764746466.538934,1.69
1764746466.545324,1.81
1764746466.55157,1.85
1764746466.557755,1.61
1764746466.5640929,1.5
1764746466.570345,1.44
1764746466.5766652,1.6
1764746466.582873,1.85
1764746466.5890229,1.9
1764746466.595265,1.94
1764746466.601542,1.96
1764746466.607733,1.54
1764746466.6139488,1.52
1764746466.6200829,1.68
1764746466.626379,1.44
1764746466.632844,1.46
1764746466.63903,1.54
1764746466.645429,1.49
1764746466.651766,1.68
1764746466.6577458,1.78
1764746466.663966,1.9
1764746466.670304,2.09
1764746466.6765592,2.0
1764746466.682934,1.86
1764746466.6890728,1.79
1764746466.695522,1.68
1764746466.701642,1.74
1764746466.707833,1.68
1764746466.71398,1.43
1764746466.720354,1.62
1764746466.7265642,1.56
1764746466.7327738,1.22
1764746466.738765,1.45
1764746466.745132,1.65
1764746466.751483,1.6
1764746466.75767,1.37
1764746466.763938,1.26
1764746466.7702248,1.38
1764746466.7763772,1.78
1764746466.782681,2.75
1764746466.788852,3.13
1764746466.795176,3.13
1764746466.801502,2.94
1764746466.8078,1.6
1764746466.813972,1.24
1764746466.820406,1.88
1764746466.8264809,1.9
1764746466.832808,1.72
1764746466.838969,1.63
1764746466.845475,1.69
1764746466.851507,1.69
1764746466.857756,1.56
1764746466.863931,1.65
1764746466.870369,1.99
1764746466.876382,1.4
1764746466.88345,1.14
1764746466.8890162,0.9
1764746466.895303,0.66
1764746466.901574,1.08
1764746466.907754,0.87
1764746466.913916,0.12
1764746466.920246,0.51
1764746466.926484,1.43
1764746466.932727,1.41
1764746466.939017,1.36
1764746466.94522,1.62
1764746466.951621,1.86
1764746466.9577532,2.04
1764746466.9639628,2.17
1764746466.970339,2.42
1764746466.97658,2.55
1764746466.982713,2.41
1764746466.9890182,2.28
1764746466.995279,2.26
1764746467.001559,2.17
1764746467.0076602,1.82
1764746467.013885,1.72
1764746467.020063,1.92
1764746467.0263228,1.7
1764746467.032936,1.64
1764746467.038919,1.86
1764746467.045298,1.78
1764746467.051382,1.55
1764746467.057724,1.61
1764746467.063916,1.74
1764746467.0702798,1.75
1764746467.076364,1.65
1764746467.082744,1.74
1764746467.088906,1.87
1764746467.095329,1.84
1764746467.1017752,1.96
1764746467.1077352,2.05
1764746467.113833,2.17
1764746467.120259,2.26
1764746467.126345,2.22
1764746467.132743,2.31
1764746467.139193,2.1
1764746467.145634,1.82
1764746467.151413,1.75
1764746467.15782,1.75
1764746467.163938,1.58
1764746467.170138,1.38
1764746467.176669,1.24
1764746467.183019,1.59
1764746467.188959,1.62
1764746467.195144,0.84
1764746467.2013812,0.82
1764746467.207839,1.12
1764746467.2139049,1.53
1764746467.220176,1.86
1764746467.226541,1.79
1764746467.2326488,2.7
1764746467.238805,2.83
1764746467.245143,2.18
1764746467.251401,2.09
1764746467.2576482,1.26
1764746467.263822,0.47
1764746467.2700522,0.63
1764746467.276393,0.9
1764746467.282625,0.9
1764746467.288792,1.09
1764746467.295177,1.19
1764746467.301731,1.05
1764746467.307824,0.62
1764746467.3138502,0.78
1764746467.320149,0.88
1764746467.326445,0.5
1764746467.3326988,0.58
1764746467.338797,0.99
1764746467.345186,1.06
1764746467.3514152,1.13
1764746467.357625,1.06
1764746467.363821,1.09
1764746467.3699782,1.46
1764746467.376271,1.57
1764746467.383151,1.58
1764746467.3888488,1.78
1764746467.395134,1.54
1764746467.401265,1.78
1764746467.407716,2.11
1764746467.413842,2.12
1764746467.4201658,2.19
1764746467.426398,2.15
1764746467.4328058,2.31
1764746467.438737,2.37
1764746467.445133,2.06
1764746467.4514508,2.2
1764746467.457665,2.24
1764746467.463776,2.07
1764746467.470113,1.97
1764746467.476479,2.1
1764746467.482586,2.49
1764746467.488846,2.57
1764746467.49515,1.47
1764746467.5014431,0.75
1764746467.507633,1.36
1764746467.5137532,1.29
1764746467.519938,1.33
1764746467.526272,1.8
1764746467.532813,2.17
1764746467.5388958,2.69
1764746467.545063,2.56
1764746467.551521,1.5
1764746467.557704,0.76
1764746467.5638,1.25
1764746467.570195,1.64
1764746467.576486,1.27
1764746467.582588,1.49
1764746467.588765,1.52
1764746467.5953338,1.54
1764746467.601401,1.99
1764746467.607504,1.77
1764746467.6138,1.53
1764746467.62011,1.82
1764746467.626281,1.87
1764746467.632707,1.7
1764746467.638813,1.7
1764746467.645039,1.84
1764746467.6512482,1.78
1764746467.657526,1.32
1764746467.6637828,1.43
1764746467.6701372,1.63
1764746467.6763752,1.94
1764746467.682608,2.75
1764746467.68878,3.13
1764746467.6950989,2.88
1764746467.701248,1.89
1764746467.707587,1.08
1764746467.713826,1.49
1764746467.7200398,1.8
1764746467.7264829,1.58
1764746467.732822,1.3
1764746467.738822,1.52
1764746467.745064,1.31
1764746467.751275,1.18
1764746467.757722,1.27
1764746467.763846,1.06
1764746467.770347,1.09
1764746467.776416,1.25
1764746467.782733,1.6
1764746467.788749,1.72
1764746467.795073,1.07
1764746467.801214,1.02
1764746467.807561,1.24
1764746467.813756,1.37
1764746467.82009,1.61
1764746467.826189,2.06
1764746467.8326132,2.45
1764746467.838811,2.44
1764746467.845129,1.61
1764746467.8512151,1.41
1764746467.857677,1.7
1764746467.863766,1.56
1764746467.870024,1.54
1764746467.8763258,1.62
1764746467.882532,1.6
1764746467.888643,1.54
1764746467.8950531,1.45
1764746467.901223,1.49
1764746467.907462,1.59
1764746467.913672,1.51
1764746467.9199748,1.51
1764746467.926133,1.58
1764746467.932671,1.91
1764746467.9386082,1.69
1764746467.94493,1.51
1764746467.951118,1.74
1764746467.957512,1.47
1764746467.9637492,1.31
1764746467.969951,1.47
1764746467.97644,1.76
1764746467.982668,1.41
1764746467.9887328,1.4
1764746467.9951282,1.73
1764746468.001278,1.91
1764746468.00768,1.85
1764746468.0137112,1.65
1764746468.0198789,1.91
1764746468.026109,1.73
1764746468.032979,1.69
1764746468.038654,1.9
1764746468.0448709,1.84
1764746468.051163,1.81
1764746468.057455,1.73
1764746468.06366,1.75
1764746468.070005,1.88
1764746468.076141,1.47
1764746468.0824,1.46
1764746468.088646,1.64
1764746468.095211,1.95
1764746468.10123,1.92
1764746468.107521,0.94
1764746468.1137002,0.73
1764746468.120118,1.08
1764746468.126205,0.86
1764746468.132664,1.65
1764746468.1386409,2.49
1764746468.144895,2.43
1764746468.1512582,1.12
1764746468.157417,0.76
1764746468.163618,1.28
1764746468.169796,1.31
1764746468.1762009,0.82
1764746468.182831,1.15
1764746468.18855,1.41
1764746468.1948118,1.45
1764746468.201115,1.68
1764746468.2073689,1.89
1764746468.2136698,1.87
1764746468.219796,1.98
1764746468.226034,1.75
1764746468.232317,1.54
1764746468.238526,1.79
1764746468.2448351,1.78
1764746468.2511208,1.75
1764746468.257338,1.76
1764746468.263633,1.84
1764746468.3267672,1.88
1764746468.327544,1.87
1764746468.3278651,1.73
1764746468.355772,1.65
1764746468.356342,1.53
1764746468.356818,1.63
1764746468.3572469,1.89
1764746468.3583329,1.59
1764746468.358751,1.55
1764746468.361341,1.53
1764746468.370445,1.64
1764746468.374277,1.65
1764746468.374727,1.62
1764746468.375073,1.55
1764746468.375394,1.5
1764746468.3757372,1.35
1764746468.376085,1.38
1764746468.37642,1.52
1764746468.3830678,1.52
1764746468.388674,1.46
1764746468.394988,1.7
1764746468.402153,2.24
1764746468.407454,1.66
1764746468.413674,1.09
1764746468.420053,1.14
1764746468.426111,1.18
1764746468.432392,1.45
1764746468.438627,1.74
1764746468.444821,1.74
1764746468.451227,1.71
1764746468.457476,1.89
1764746468.463586,2.06
1764746468.469902,2.0
1764746468.476085,1.35
1764746468.482379,0.92
1764746468.488566,1.17
1764746468.494852,0.92
1764746468.501398,1.03
1764746468.507325,1.37
1764746468.513592,1.27
1764746468.519783,1.17
1764746468.526011,1.18
1764746468.532394,0.94
1764746468.53867,0.87
1764746468.544812,0.99
1764746468.550999,1.23
1764746468.557376,1.45
1764746468.563537,1.42
1764746468.569807,1.65
1764746468.576128,2.26
1764746468.582644,3.02
1764746468.588596,3.14
1764746468.594783,2.7
1764746468.60119,1.77
1764746468.607298,1.29
1764746468.613607,1.59
1764746468.619818,1.89
1764746468.626359,1.56
1764746468.633281,1.78
1764746468.638502,2.04
1764746468.644895,1.67
1764746468.65103,1.77
1764746468.6572428,1.62
1764746468.663538,1.31
1764746468.669817,1.41
1764746468.676002,1.58
1764746468.683011,1.67
1764746468.688481,1.97
1764746468.6947331,1.76
1764746468.7010062,1.25
1764746468.707335,0.63
1764746468.71345,0.8
1764746468.719716,1.08
1764746468.7261078,0.57
1764746468.73269,0.33
1764746468.738475,0.87
1764746468.744758,1.23
1764746468.7509608,1.38
1764746468.757216,1.28
1764746468.763489,0.97
1764746468.769655,1.79
1764746468.776049,2.11
1764746468.7823591,1.66
1764746468.788512,1.91
1764746468.7947688,1.93
1764746468.800997,1.74
1764746468.807262,1.33
1764746468.813486,1.09
1764746468.819714,1.21
1764746468.826064,1.0
1764746468.832407,1.24
1764746468.8384562,1.53
1764746468.844665,1.3
1764746468.8509388,1.37
1764746468.8572211,1.79
1764746468.863478,1.87
1764746468.869726,1.77
1764746468.87589,1.83
1764746468.882372,1.72
1764746468.8883798,1.55
1764746468.894725,1.52
1764746468.900913,1.67
1764746468.907192,1.67
1764746468.913408,1.39
1764746468.919679,1.34
1764746468.925982,1.5
1764746468.932451,1.69
1764746468.938426,1.39
1764746468.94474,1.19
1764746468.9511092,1.49
1764746468.957158,1.43
1764746468.963635,1.26
1764746468.969764,1.52
1764746468.975979,1.49
1764746468.982333,1.52
1764746468.988485,1.55
1764746468.9947,1.56
1764746469.000932,1.47
1764746469.007168,1.35
1764746469.0134542,1.13
1764746469.019655,1.3
1764746469.025998,1.52
1764746469.0323992,1.91
1764746469.038389,2.44
1764746469.044627,2.32
1764746469.050889,1.11
1764746469.057316,0.61
1764746469.063566,0.83
1764746469.0696902,1.06
1764746469.075959,0.99
1764746469.083889,0.83
1764746469.0884,1.09
1764746469.0947149,1.18
1764746469.101014,0.97
1764746469.10721,0.8
1764746469.113419,0.85
1764746469.119693,1.19
1764746469.126026,1.17
1764746469.1331358,1.01
1764746469.138571,1.27
1764746469.144629,1.24
1764746469.150923,1.15
1764746469.157177,1.19
1764746469.163657,1.29
1764746469.169724,1.53
1764746469.175963,1.59
1764746469.1825469,1.83
1764746469.188709,1.95
1764746469.1947362,1.62
1764746469.2009249,1.81
1764746469.2071822,2.07
1764746469.2133708,2.02
1764746469.21966,1.98
1764746469.22586,2.15
1764746469.2320929,2.17
1764746469.2383628,2.34
1764746469.244622,2.14
1764746469.250853,1.97
1764746469.257038,2.02
1764746469.263392,2.16
1764746469.269557,2.09
1764746469.27581,2.08
1764746469.282551,2.23
1764746469.2883468,1.93
1764746469.294534,1.78
1764746469.30099,2.37
1764746469.3071308,2.16
1764746469.3134851,1.62
1764746469.319835,1.41
1764746469.325932,0.98
1764746469.332397,1.3
1764746469.338343,1.06
1764746469.344687,0.5
1764746469.350916,0.71
1764746469.357066,0.93
1764746469.363521,0.97
1764746469.369623,1.27
1764746469.375814,1.4
1764746469.382462,2.24
1764746469.388436,2.74
1764746469.3945532,1.67
1764746469.400821,2.05
1764746469.407128,2.78
1764746469.413456,2.56
1764746469.419667,2.12
1764746469.425812,2.29
1764746469.432215,2.04
1764746469.438438,1.71
1764746469.444813,1.78
1764746469.450921,2.05
1764746469.457067,1.95
1764746469.463352,1.54
1764746469.469564,1.97
1764746469.475847,2.5
1764746469.482103,2.98
1764746469.488394,3.15
1764746469.494734,2.96
1764746469.500981,1.71
1764746469.507058,1.02
1764746469.5134,1.46
1764746469.519705,1.58
1764746469.525727,1.27
1764746469.532091,1.19
1764746469.538511,1.31
1764746469.544547,1.3
1764746469.550768,1.42
1764746469.557022,1.42
1764746469.563446,1.25
1764746469.569514,1.63
1764746469.575804,1.57
1764746469.582079,1.27
1764746469.5883589,1.33
1764746469.594701,1.31
1764746469.6008651,1.26
1764746469.607265,1.23
1764746469.613377,1.29
1764746469.6196852,1.75
1764746469.626036,1.83
1764746469.632206,1.3
1764746469.63858,1.12
1764746469.64456,1.4
1764746469.650867,1.86
1764746469.657203,2.08
1764746469.663413,2.04
1764746469.6695309,2.04
1764746469.675891,2.21
1764746469.682069,2.16
1764746469.688423,2.09
1764746469.694635,1.97
1764746469.700793,1.91
1764746469.707028,1.86
1764746469.7135308,1.66
1764746469.719556,1.76
1764746469.72578,1.8
1764746469.732234,1.72
1764746469.738341,1.76
1764746469.7446,1.77
1764746469.750734,1.85
1764746469.757092,1.8
1764746469.76333,1.66
1764746469.7694669,1.67
1764746469.775757,1.61
1764746469.782051,1.82
1764746469.788215,1.83
1764746469.794539,1.6
1764746469.800722,1.66
1764746469.8069649,1.86
1764746469.813324,1.74
1764746469.819635,1.57
1764746469.825788,1.59
1764746469.8320189,1.71
1764746469.8382962,1.44
1764746469.844455,1.09
1764746469.850985,1.27
1764746469.856948,1.43
1764746469.863296,1.45
1764746469.869608,1.56
1764746469.875697,1.65
1764746469.8821,1.57
1764746469.888212,1.52
1764746469.8945122,1.64
1764746469.9006789,1.61
1764746469.906967,1.09
1764746469.913296,1.08
1764746469.919446,1.64
1764746469.925687,2.13
1764746469.931974,2.82
1764746469.938238,3.14
1764746469.944524,2.9
1764746469.950853,0.76
1764746469.956913,0.39
1764746469.963306,1.02
1764746469.969525,1.21
1764746469.975729,1.34
1764746469.98206,1.6
1764746469.988197,2.07
1764746469.994422,2.31
1764746470.000724,1.72
1764746470.0069618,1.55
1764746470.013282,1.63
1764746470.026818,1.88
1764746470.027599,1.83
1764746470.037046,1.76
1764746470.038399,1.86
1764746470.04462,1.64
1764746470.063671,1.83
1764746470.063864,2.08
1764746470.06404,1.91
1764746470.084007,1.86
1764746470.0851378,1.82
1764746470.085224,1.85
1764746470.094941,2.07
1764746470.095062,1.98
1764746470.1020968,2.07
1764746470.108709,2.07
1764746470.113476,1.78
1764746470.11961,1.81
1764746470.125783,1.78
1764746470.1320472,1.53
1764746470.139128,1.43
1764746470.144686,1.27
1764746470.152951,1.5
1764746470.1580951,1.5
1764746470.1632268,1.49
1764746470.169766,1.45
1764746470.175779,1.47
1764746470.1820958,1.53
1764746470.192783,1.54
1764746470.195071,1.48
1764746470.200961,1.57
1764746470.207008,1.45
1764746470.213278,1.32
1764746470.219456,1.33
1764746470.2258282,1.3
1764746470.232053,1.36
1764746470.238222,1.41
1764746470.244545,1.94
1764746470.250821,2.21
1764746470.257001,1.65
1764746470.2631302,1.55
1764746470.269409,1.71
1764746470.275583,1.72
1764746470.281864,1.97
1764746470.2881138,2.11
1764746470.294451,1.48
1764746470.300555,1.42
1764746470.306897,1.8
1764746470.313092,1.61
1764746470.319361,1.38
1764746470.325595,1.41
1764746470.33192,1.58
1764746470.338153,1.54
1764746470.344576,1.6
1764746470.350632,1.53
1764746470.35694,1.54
1764746470.363157,1.49
1764746470.369306,1.53
1764746470.37554,1.83
1764746470.381835,2.59
1764746470.388223,3.12
1764746470.394611,2.99
1764746470.4006138,2.35
1764746470.406914,1.37
1764746470.413146,1.08
1764746470.419376,0.84
1764746470.425694,1.0
1764746470.4320588,0.84
1764746470.4381702,0.63
1764746470.444453,0.9
1764746470.4506738,0.83
1764746470.456801,0.7
1764746470.463093,0.72
1764746470.469325,0.76
1764746470.475622,1.03
1764746470.4818869,1.03
1764746470.488095,1.03
1764746470.494352,1.35
1764746470.500716,1.68
1764746470.5068538,1.79
1764746470.513066,1.99
1764746470.519391,1.95
1764746470.52565,1.73
1764746470.531799,1.89
1764746470.538048,1.96
1764746470.54437,1.81
1764746470.5506382,1.85
1764746470.556843,1.93
1764746470.5630789,1.55
1764746470.5692768,1.19
1764746470.575534,0.92
1764746470.582022,0.38
1764746470.588127,0.78
1764746470.594336,1.07
1764746470.600588,0.89
1764746470.6067588,1.71
1764746470.613085,2.54
1764746470.61928,2.29
1764746470.625557,1.88
1764746470.6319091,1.67
1764746470.638079,1.3
1764746470.6442828,1.32
1764746470.6504729,1.52
1764746470.656868,1.43
1764746470.6630342,1.11
1764746470.669225,1.46
1764746470.675524,1.61
1764746470.68179,1.19
1764746470.688075,1.45
1764746470.694312,1.66
1764746470.7005172,1.66
1764746470.706848,1.58
1764746470.713076,1.64
1764746470.719344,1.78
1764746470.7256188,1.72
1764746470.731849,1.67
1764746470.7380538,1.67
1764746470.7443268,1.56
1764746470.750518,1.43
1764746470.75678,1.46
1764746470.763009,1.53
1764746470.769278,1.49
1764746470.775533,1.28
1764746470.781787,1.25
1764746470.788,1.47
1764746470.794256,1.37
1764746470.800472,1.3
1764746470.806734,1.42
1764746470.813024,1.33
1764746470.819225,1.42
1764746470.8254862,1.48
1764746470.8318331,1.8
1764746470.838039,2.75
1764746470.844237,3.12
1764746470.8504682,3.11
1764746470.856748,2.19
1764746470.863008,0.52
1764746470.869301,0.84
1764746470.875558,1.52
1764746470.882208,1.83
1764746470.888162,1.57
1764746470.8943648,0.66
1764746470.900458,0.7
1764746470.906803,1.36
1764746470.913014,1.34
1764746470.919318,1.59
1764746470.925482,1.77
1764746470.931862,1.41
1764746470.937985,1.3
1764746470.944282,1.44
1764746470.95043,1.49
1764746470.956713,1.59
1764746470.962986,1.52
1764746470.969245,1.61
1764746470.975458,1.47
1764746470.981896,1.41
1764746470.988022,1.58
1764746470.994278,1.4
1764746471.0005188,1.45
1764746471.0066948,1.55
1764746471.013016,1.41
1764746471.019282,1.51
1764746471.025502,1.57
1764746471.031928,1.5
1764746471.037997,1.45
1764746471.044276,1.49
1764746471.05047,1.54
1764746471.0567129,1.34
1764746471.0630558,1.52
1764746471.06922,1.84
1764746471.075501,1.45
1764746471.081741,1.45
1764746471.087936,1.79
1764746471.09425,1.66
1764746471.100495,1.58
1764746471.106686,1.6
1764746471.11294,1.76
1764746471.119225,1.78
1764746471.125473,1.73
1764746471.131914,1.69
1764746471.137932,2.0
1764746471.144212,2.09
1764746471.150468,2.01
1764746471.156746,2.04
1764746471.1629472,1.84
1764746471.169268,1.92
1764746471.175463,2.04
1764746471.1817,1.95
1764746471.188034,2.05
1764746471.194151,1.9
1764746471.2004611,1.17
1764746471.206826,0.94
1764746471.2129889,0.91
1764746471.2192152,1.08
1764746471.225533,1.2
1764746471.231758,1.32
1764746471.2379751,1.6
1764746471.244203,1.58
1764746471.250582,1.6
1764746471.256675,1.47
1764746471.262913,0.84
1764746471.269207,1.0
1764746471.275514,1.19
1764746471.281738,1.0
1764746471.287839,1.34
1764746471.294179,2.36
1764746471.3005052,3.14
1764746471.306863,3.12
1764746471.3137422,2.61
1764746471.319097,1.45
1764746471.325394,1.18
1764746471.331657,1.53
1764746471.337929,1.59
1764746471.3442292,1.4
1764746471.3504288,1.54
1764746471.356682,1.78
1764746471.362914,1.81
1764746471.369178,1.97
1764746471.375374,1.79
1764746471.381699,1.37
1764746471.388077,1.52
1764746471.394201,1.48
1764746471.400578,1.51
1764746471.406677,1.55
1764746471.4129422,1.4
1764746471.419358,1.45
1764746471.425396,1.48
1764746471.431645,1.51
1764746471.437912,1.72
1764746471.444155,1.46
1764746471.450408,1.42
1764746471.4566872,1.55
1764746471.462987,1.54
1764746471.469198,1.67
1764746471.475422,1.61
1764746471.481707,1.51
1764746471.488041,1.56
1764746471.494167,1.79
1764746471.5003362,1.45
1764746471.506743,0.97
1764746471.512924,0.61
1764746471.5369978,1.02
1764746471.537227,1.44
1764746471.53741,1.46
1764746471.564021,1.42
1764746471.5696151,1.36
1764746471.569767,1.59
1764746471.569876,1.71
1764746471.57502,1.61
1764746471.57531,1.73
1764746471.5755332,1.7
1764746471.596975,1.53
1764746471.602783,1.69
1764746471.606113,1.5
1764746471.606485,1.77
1764746471.606715,2.13
1764746471.61542,2.15
1764746471.621982,2.61
1764746471.62557,2.77
1764746471.631691,2.48
1764746471.637904,1.62
1764746471.644108,1.67
1764746471.650909,2.24
1764746471.656654,1.73
1764746471.663211,1.2
1764746471.669282,1.4
1764746471.675443,1.38
1764746471.6817129,1.39
1764746471.69444,1.79
1764746471.696407,1.77
1764746471.7003798,1.65
1764746471.7089942,1.8
1764746471.713388,2.04
1764746471.7196312,1.92
1764746471.7253902,1.88
1764746471.7315998,1.93
1764746471.738038,1.78
1764746471.744086,1.53
1764746471.750326,2.6
1764746471.7565691,3.15
1764746471.762869,3.14
1764746471.769234,2.66
1764746471.77539,1.26
1764746471.781651,0.82
1764746471.78787,1.35
1764746471.794158,1.3
1764746471.800288,0.97
1764746471.806561,0.57
1764746471.8130891,0.29
1764746471.8190222,0.84
1764746471.825304,1.58
1764746471.83156,1.58
1764746471.837758,1.68
1764746471.844029,1.92
1764746471.850302,2.12
1764746471.856543,2.41
1764746471.86303,2.61
1764746471.869,2.35
1764746471.875393,1.12
1764746471.8820229,0.86
1764746471.887789,1.38
1764746471.8941708,1.25
1764746471.900425,1.11
1764746471.9065769,0.97
1764746471.913066,0.99
1764746471.919101,1.33
1764746471.925298,1.23
1764746471.931499,1.2
1764746471.9377658,1.49
1764746471.944156,1.7
1764746471.950301,1.5
1764746471.956497,1.51
1764746471.962811,1.77
1764746471.968943,1.86
1764746471.9753118,1.5
1764746471.98164,1.33
1764746471.987722,1.75
1764746471.994018,1.73
1764746472.000303,1.71
1764746472.006576,1.85
1764746472.012948,1.8
1764746472.019001,1.85
1764746472.0252328,1.85
1764746472.03159,1.65
1764746472.0379589,1.85
1764746472.044197,1.87
1764746472.0502698,1.6
1764746472.0565271,1.45
1764746472.062905,1.33
1764746472.068981,1.63
1764746472.075459,1.31
1764746472.081525,1.19
1764746472.087913,1.78
1764746472.094112,1.74
1764746472.100271,1.71
1764746472.1064892,2.11
1764746472.112888,1.32
1764746472.1190631,0.52
1764746472.1251898,0.97
1764746472.131597,1.69
1764746472.137922,1.47
1764746472.144164,1.42
1764746472.15026,1.87
1764746472.1566012,2.05
1764746472.1628742,1.85
1764746472.169141,1.89
1764746472.175202,2.08
1764746472.181677,1.79
1764746472.187776,1.68
1764746472.194101,1.5
1764746472.20023,1.63
1764746472.206493,2.59
1764746472.21281,3.15
1764746472.218987,2.87
1764746472.225277,2.6
1764746472.231828,1.92
1764746472.237716,0.97
1764746472.244346,1.18
1764746472.250507,1.8
1764746472.256566,1.38
1764746472.2627342,1.12
1764746472.269129,1.94
1764746472.275298,1.39
1764746472.281598,0.61
1764746472.287797,1.69
1764746472.2940009,1.68
1764746472.300294,1.53
1764746472.306544,1.56
1764746472.313087,1.62
1764746472.318902,1.6
1764746472.325384,1.86
1764746472.331496,2.24
1764746472.337857,2.06
1764746472.34417,1.71
1764746472.350396,1.76
1764746472.356446,2.07
1764746472.3628428,2.11
1764746472.36891,2.07
1764746472.3753788,2.14
1764746472.38158,2.05
1764746472.387682,2.14
1764746472.3941278,1.69
1764746472.4002812,1.68
1764746472.4065092,2.41
1764746472.4129212,2.33
1764746472.418965,1.16
1764746472.425208,0.6
1764746472.431505,0.87
1764746472.437702,1.19
1764746472.4440372,0.89
1764746472.450258,1.2
1764746472.4566689,1.84
1764746472.46327,2.09
1764746472.4688509,2.06
1764746472.475359,2.27
1764746472.481453,2.07
1764746472.4877691,1.56
1764746472.494094,1.42
1764746472.5003688,1.63
1764746472.506494,1.75
1764746472.512767,1.73
1764746472.5189152,2.0
1764746472.525354,1.73
1764746472.531615,1.41
1764746472.537758,1.95
1764746472.54422,2.27
1764746472.550313,2.07
1764746472.556471,2.16
1764746472.562777,2.22
1764746472.569029,1.67
1764746472.575216,1.58
1764746472.581494,1.85
1764746472.587758,1.81
1764746472.594115,1.74
1764746472.600427,1.75
1764746472.606679,2.0
1764746472.612649,1.9
1764746472.618947,1.41
1764746472.6253262,1.55
1764746472.631381,1.95
1764746472.6377149,1.46
1764746472.644018,0.97
1764746472.6502998,1.33
1764746472.656349,1.55
1764746472.6626172,1.82
1764746472.6688929,2.81
1764746472.6751518,2.95
1764746472.681508,1.72
1764746472.687809,0.86
1764746472.69405,1.11
1764746472.700248,0.94
1764746472.7064278,0.42
1764746472.712638,0.22
1764746472.719118,0.73
1764746472.725096,1.0
1764746472.731471,1.21
1764746472.7377138,1.4
1764746472.743925,1.73
1764746472.750198,2.01
1764746472.756418,1.36
1764746472.762752,1.08
1764746472.768972,1.17
1764746472.775288,1.09
1764746472.781417,0.59
1764746472.787573,0.85
1764746472.793935,1.09
1764746472.800075,1.03
1764746472.806321,1.03
1764746472.812688,0.96
1764746472.818839,0.93
1764746472.825176,0.91
1764746472.8313549,0.98
1764746472.837743,1.18
1764746472.844242,1.35
1764746472.850304,1.77
1764746472.856537,1.12
1764746472.86263,1.18
1764746472.868972,1.96
1764746472.8752482,1.96
1764746472.881484,1.54
1764746472.887833,1.89
1764746472.8942049,1.77
1764746472.900307,1.59
1764746472.9064078,1.6
1764746472.912559,1.63
1764746472.918934,1.71
1764746472.9251351,1.58
1764746472.931436,1.59
1764746472.937912,1.62
1764746472.944,1.56
1764746472.950152,1.81
1764746472.956531,1.51
1764746472.96257,1.42
1764746472.968858,1.66
1764746472.975062,1.62
1764746472.981424,1.37
1764746472.987689,1.78
1764746472.99393,1.81
1764746473.00014,1.53
1764746473.006285,1.27
1764746473.0125508,0.83
1764746473.018813,1.16
1764746473.025167,1.68
1764746473.031491,1.65
1764746473.0377028,1.75
1764746473.044034,1.18
1764746473.050329,1.08
1764746473.0563,1.57
1764746473.062905,1.52
1764746473.068876,1.26
1764746473.0749109,1.43
1764746473.081322,1.42
1764746473.087587,1.55
1764746473.093965,1.7
1764746473.100053,1.67
1764746473.1062,1.55
1764746473.112989,1.98
1764746473.118913,3.06
1764746473.12508,3.15
1764746473.131276,3.14
1764746473.137585,2.64
1764746473.1437938,1.28
1764746473.150097,1.28
1764746473.15624,1.48
1764746473.162545,1.29
1764746473.1688771,1.43
1764746473.175105,1.78
1764746473.1812758,1.77
1764746473.1874838,1.9
1764746473.1937711,1.74
1764746473.2000031,1.57
1764746473.208221,1.63
1764746473.216078,1.46
1764746473.234559,1.48
1764746473.284142,1.27
1764746473.290275,1.26
1764746473.2910662,1.36
1764746473.2912052,1.32
1764746473.2915032,1.42
1764746473.2918122,1.56
1764746473.292022,1.81
1764746473.292164,2.23
1764746473.292299,2.12
1764746473.292434,1.68
1764746473.2926478,1.84
1764746473.293817,1.96
1764746473.300021,1.9
1764746473.307035,2.24
1764746473.314271,2.26
1764746473.318742,1.2
1764746473.325086,0.9
1764746473.332128,1.3
1764746473.33869,1.93
1764746473.343716,1.68
1764746473.350112,1.4
1764746473.356212,1.96
1764746473.362584,2.15
1764746473.368746,2.18
1764746473.374954,2.15
1764746473.38121,2.04
1764746473.3874712,1.92
1764746473.393686,1.69
1764746473.400018,1.43
1764746473.406196,1.65
1764746473.412905,1.58
1764746473.418656,1.46
1764746473.4249291,1.39
1764746473.4312398,1.54
1764746473.4374652,1.46
1764746473.443658,1.52
1764746473.4499378,1.81
1764746473.456234,1.59
1764746473.46266,1.52
1764746473.468759,1.82
1764746473.475004,1.78
1764746473.481259,1.57
1764746473.487404,1.76
1764746473.493684,1.73
1764746473.4999,1.78
1764746473.506144,1.87
1764746473.512467,1.41
1764746473.518837,0.87
1764746473.5249002,1.48
1764746473.531167,1.73
1764746473.5374,1.08
1764746473.5437288,0.79
1764746473.549948,1.08
1764746473.556177,0.95
1764746473.562907,1.37
1764746473.5687318,2.31
1764746473.574952,3.05
1764746473.581174,2.91
1764746473.58749,1.31
1764746473.593767,0.0
1764746473.599982,0.0
1764746473.6060858,0.0
1764746473.61265,0.1
1764746473.619762,1.89
1764746473.6248078,3.16
1764746473.6311731,3.12
1764746473.637387,2.42
1764746473.6435788,1.54
1764746473.649864,1.34
1764746473.6560798,0.97
1764746473.6627,0.12
1764746473.668643,0.93
1764746473.674897,1.06
1764746473.681122,0.9
1764746473.687443,1.54
1764746473.693887,2.0
1764746473.699899,1.95
1764746473.706226,1.8
1764746473.712439,1.67
1764746473.718723,1.68
1764746473.7249532,1.57
1764746473.731183,1.59
1764746473.7376351,1.93
1764746473.743676,1.69
1764746473.750046,1.64
1764746473.756213,2.03
1764746473.762469,1.62
1764746473.768657,1.39
1764746473.774859,1.77
1764746473.781216,1.89
1764746473.7875211,1.76
1764746473.793678,1.65
1764746473.799967,1.37
1764746473.8062332,1.46
1764746473.812511,1.58
1764746473.818701,1.71
1764746473.8249788,1.47
1764746473.831178,1.34
1764746473.837522,1.67
1764746473.843669,1.59
1764746473.849993,1.44
1764746473.856212,1.98
1764746473.862478,1.84
1764746473.868667,1.16
1764746473.8749042,0.97
1764746473.881214,1.22
1764746473.887403,1.41
1764746473.893594,1.18
1764746473.899989,1.24
1764746473.90614,1.37
1764746473.912429,1.48
1764746473.918614,1.82
1764746473.924896,2.03
1764746473.9311428,1.98
1764746473.937412,1.97
1764746473.943598,1.96
1764746473.949918,1.78
1764746473.956249,1.46
1764746473.962504,1.2
1764746473.968723,1.4
1764746473.975072,1.51
1764746473.981239,1.55
1764746473.9874089,1.7
1764746473.993601,1.25
1764746473.999927,0.91
1764746474.006208,1.3
1764746474.012375,1.33
1764746474.0190122,1.9
1764746474.0248342,2.82
1764746474.031158,3.13
1764746474.0373042,3.13
1764746474.0438569,2.31
1764746474.050266,0.8
1764746474.056095,1.05
1764746474.062528,1.59
1764746474.0685928,1.45
1764746474.074839,1.51
1764746474.081141,1.64
1764746474.087332,1.27
1764746474.0936918,1.19
1764746474.0998552,1.38
1764746474.106176,1.45
1764746474.112781,1.21
1764746474.118609,1.41
1764746474.124998,1.42
1764746474.1313112,1.12
1764746474.137393,1.34
1764746474.143628,1.63
1764746474.1498802,1.45
1764746474.1561,1.4
1764746474.162396,1.88
1764746474.168592,1.73
1764746474.175036,1.11
1764746474.1811688,0.63
1764746474.187299,0.96
1764746474.19371,1.25
1764746474.199878,1.12
1764746474.20607,1.41
1764746474.212364,1.91
1764746474.218562,1.87
1764746474.224855,1.52
1764746474.231162,1.55
1764746474.2372491,1.64
1764746474.243542,1.27
1764746474.249778,1.15
1764746474.2560902,1.75
1764746474.262396,2.17
1764746474.268471,1.6
1764746474.274732,1.24
1764746474.281006,1.41
1764746474.287244,1.8
1764746474.2935512,2.06
1764746474.29972,2.05
1764746474.306001,2.11
1764746474.312344,1.83
1764746474.318443,1.78
1764746474.324832,1.81
1764746474.331039,2.0
1764746474.337163,2.2
1764746474.343571,1.51
1764746474.3498769,1.5
1764746474.355956,2.06
1764746474.3622458,1.97
1764746474.368505,1.81
1764746474.374724,1.98
1764746474.3810182,2.04
1764746474.387268,2.1
1764746474.393526,1.64
1764746474.3997371,1.11
1764746474.405986,1.35
1764746474.4122958,1.53
1764746474.418518,1.27
1764746474.4247591,0.98
1764746474.431041,1.2
1764746474.4372532,1.38
1764746474.443499,1.2
1764746474.449733,1.03
1764746474.456058,1.26
1764746474.462327,1.03
1764746474.468601,0.84
1764746474.474718,1.52
1764746474.481031,2.57
1764746474.48718,3.14
1764746474.493532,2.98
1764746474.4997911,1.8
1764746474.5060291,1.33
1764746474.5122292,2.13
1764746474.5185332,2.67
1764746474.524742,1.79
1764746474.5309608,0.89
1764746474.537188,1.31
1764746474.5434828,1.31
1764746474.549674,1.01
1764746474.555947,1.03
1764746474.562224,0.81
1764746474.568456,0.65
1764746474.574648,0.74
1764746474.580954,0.87
1764746474.587142,1.11
1764746474.593438,0.98
1764746474.59967,0.73
1764746474.6059709,1.27
1764746474.612375,1.18
1764746474.618457,0.86
1764746474.62478,1.13
1764746474.63095,1.24
1764746474.637106,1.16
1764746474.643412,1.39
1764746474.649676,1.72
1764746474.655944,1.91
1764746474.6623108,1.97
1764746474.668398,2.19
1764746474.6747708,2.06
1764746474.6964312,1.97
1764746474.7076218,2.29
1764746474.711018,1.99
1764746474.716015,1.98
1764746474.7161942,2.08
1764746474.7163389,1.7
1764746474.733603,1.53
1764746474.738245,1.38
1764746474.738335,1.55
1764746474.738395,1.69
1764746474.749705,1.63
1764746474.755244,1.58
1764746474.7568262,1.29
1764746474.771821,1.06
1764746474.772236,1.66
1764746474.774679,2.49
1764746474.780999,2.44
1764746474.787364,2.13
1764746474.79364,1.73
1764746474.799805,1.73
1764746474.806044,1.74
1764746474.812172,1.79
1764746474.818846,1.66
1764746474.82461,1.58
1764746474.831542,2.23
1764746474.837253,2.56
1764746474.84367,2.3
1764746474.849656,1.9
1764746474.856149,1.77
1764746474.8622231,1.73
1764746474.868543,1.73
1764746474.875009,1.82
1764746474.881048,1.54
1764746474.887433,1.64
1764746474.893499,1.76
1764746474.899607,1.52
1764746474.9058938,1.69
1764746474.91238,1.7
1764746474.918442,1.57
1764746474.924594,1.81
1764746474.930877,2.66
1764746474.937068,3.16
1764746474.943318,3.13
1764746474.949602,2.45
1764746474.9558358,1.02
1764746474.962258,0.84
1764746474.968373,1.41
1764746474.974689,1.4
1764746474.980832,0.92
1764746474.987162,0.94
1764746474.993393,1.38
1764746474.999595,1.64
1764746475.006072,1.59
1764746475.0122728,1.37
1764746475.0184782,1.11
1764746475.024895,1.48
1764746475.030944,1.41
1764746475.037282,0.97
1764746475.043413,1.16
1764746475.049694,1.69
1764746475.05597,2.1
1764746475.062277,1.84
1764746475.068415,1.79
1764746475.0748632,2.04
1764746475.0809338,2.08
1764746475.087313,2.12
1764746475.09342,1.91
1764746475.099621,1.59
1764746475.1057951,1.73
1764746475.112232,1.67
1764746475.118394,1.67
1764746475.124753,1.63
1764746475.1308968,1.48
1764746475.137162,1.58
1764746475.1433332,1.37
1764746475.149589,1.34
1764746475.15594,1.46
1764746475.1626172,1.56
1764746475.168302,0.96
1764746475.174714,1.02
1764746475.18105,1.15
1764746475.187131,1.24
1764746475.193413,1.31
1764746475.199651,1.41
1764746475.20585,1.5
1764746475.2121348,1.69
1764746475.218273,1.4
1764746475.224532,1.59
1764746475.230779,1.92
1764746475.237035,1.77
1764746475.243305,1.73
1764746475.2496,1.76
1764746475.255857,2.08
1764746475.262057,2.15
1764746475.268321,2.15
1764746475.2745228,2.38
1764746475.280874,2.31
1764746475.2870998,1.96
1764746475.293329,1.95
1764746475.299573,1.96
1764746475.305716,2.12
1764746475.312072,2.16
1764746475.3183172,1.73
1764746475.32447,0.96
1764746475.3307252,0.66
1764746475.337033,1.14
1764746475.343262,0.95
1764746475.349512,1.04
1764746475.3557591,1.55
1764746475.36213,1.35
1764746475.368333,1.29
1764746475.37452,1.14
1764746475.380748,1.23
1764746475.3870049,1.88
1764746475.393236,2.64
1764746475.399555,2.8
1764746475.405751,2.86
1764746475.412066,2.18
1764746475.4182231,1.32
1764746475.4245172,1.63
1764746475.4308522,1.81
1764746475.437114,1.84
1764746475.443327,1.8
1764746475.449693,1.82
1764746475.455866,2.02
1764746475.462214,1.91
1764746475.4683678,1.94
1764746475.474658,2.06
1764746475.4807942,1.79
1764746475.4870532,1.67
1764746475.493255,1.7
1764746475.49969,1.6
1764746475.5058408,1.66
1764746475.512292,1.63
1764746475.51832,1.64
1764746475.524553,1.82
1764746475.5307698,1.85
1764746475.5369852,1.96
1764746475.543234,1.95
1764746475.549609,1.85
1764746475.555716,1.92
1764746475.562034,1.95
1764746475.568303,1.85
1764746475.5744698,1.8
1764746475.580735,1.62
1764746475.5870562,1.44
1764746475.5932748,1.26
1764746475.599502,1.31
1764746475.605772,1.47
1764746475.612053,1.54
1764746475.618253,1.77
1764746475.624487,1.52
1764746475.6307158,1.32
1764746475.636937,1.62
1764746475.6431758,1.72
1764746475.649556,1.67
1764746475.655696,1.74
1764746475.662049,2.15
1764746475.668236,1.77
1764746475.6744692,1.17
1764746475.6807292,1.39
1764746475.687098,1.5
1764746475.6933372,0.74
1764746475.6997252,0.31
1764746475.705767,0.56
1764746475.7119849,0.56
1764746475.718251,0.38
1764746475.724627,0.65
1764746475.7308009,0.84
1764746475.737129,0.26
1764746475.743208,0.59
1764746475.749588,1.42
1764746475.7558038,1.33
1764746475.762104,0.53
1764746475.768352,1.07
1764746475.774771,1.42
1764746475.780803,1.21
1764746475.7869408,1.51
1764746475.793299,1.55
1764746475.799596,1.0
1764746475.805705,1.22
1764746475.812115,1.42
1764746475.8183491,1.42
1764746475.8245382,1.5
1764746475.830837,1.66
1764746475.8369532,1.4
1764746475.843356,1.15
1764746475.8495529,1.75
1764746475.855768,2.68
1764746475.862103,2.79
1764746475.868195,2.02
1764746475.8743749,0.65
1764746475.880626,0.57
1764746475.886919,1.26
1764746475.893246,1.18
1764746475.899436,1.01
1764746475.905617,1.1
1764746475.911936,1.09
1764746475.918179,0.65
1764746475.924511,0.0
1764746475.9307148,0.0
1764746475.936962,0.11
1764746475.943198,0.23
1764746475.949422,0.17
1764746475.9557278,0.95
1764746475.9618611,1.88
1764746475.968158,1.42
1764746475.9743948,0.77
1764746475.980601,1.1
1764746475.986892,3.05
1764746475.993139,1.97
1764746475.99947,0.43
1764746476.00569,0.78
1764746476.011838,1.37
1764746476.018168,1.33
1764746476.0245671,1.52
1764746476.0305548,1.72
1764746476.036843,1.79
1764746476.043398,1.88
1764746476.049411,2.13
1764746476.055627,1.95
1764746476.0619571,1.6
1764746476.068133,1.71
1764746476.0744588,1.87
1764746476.080632,1.58
1764746476.086887,1.43
1764746476.093266,1.65
1764746476.099312,1.87
1764746476.1056268,1.93
1764746476.111846,1.88
1764746476.118185,1.89
1764746476.124394,2.24
1764746476.130631,1.82
1764746476.136821,1.76
1764746476.1432,1.87
1764746476.149367,1.77
1764746476.15568,1.87
1764746476.1619031,1.76
1764746476.168148,1.6
1764746476.17435,1.56
1764746476.180557,1.45
1764746476.186979,1.86
1764746476.193177,2.03
1764746476.199337,1.79
1764746476.205625,1.72
1764746476.211926,1.9
1764746476.218163,1.6
1764746476.224342,0.64
1764746476.230558,0.14
1764746476.236841,0.86
1764746476.243232,1.47
1764746476.252627,1.24
1764746476.264084,1.36
1764746476.26426,1.56
1764746476.287263,1.71
1764746476.3157,1.84
1764746476.335325,1.63
1764746476.339184,1.56
1764746476.339461,1.51
1764746476.3398342,1.55
1764746476.340098,1.95
1764746476.3403368,2.54
1764746476.340584,2.91
1764746476.340838,2.86
1764746476.341089,1.82
1764746476.341355,0.94
1764746476.343193,1.08
1764746476.349616,1.53
1764746476.355724,1.72
1764746476.36214,1.3
1764746476.368352,1.34
1764746476.374648,1.75
1764746476.380893,1.78
1764746476.387041,1.71
1764746476.393342,1.32
1764746476.399572,1.34
1764746476.40591,1.63
1764746476.411927,1.39
1764746476.4183528,1.45
1764746476.4243908,1.63
1764746476.430638,1.39
1764746476.4369102,1.68
1764746476.446205,1.77
1764746476.449724,1.64
1764746476.455606,2.08
1764746476.461877,2.01
1764746476.46825,1.9
1764746476.474536,2.13
1764746476.4807522,2.08
1764746476.486936,1.96
1764746476.493341,1.92
1764746476.499251,1.75
1764746476.505676,1.91
1764746476.5118568,1.99
1764746476.518198,1.72
1764746476.524369,0.97
1764746476.53053,0.88
1764746476.53687,1.3
1764746476.543005,1.32
1764746476.549261,1.22
1764746476.555567,1.63
1764746476.5619578,1.68
1764746476.568062,1.53
1764746476.5742111,1.62
1764746476.580608,1.38
1764746476.5867012,1.16
1764746476.593184,1.39
1764746476.599256,1.63
1764746476.605608,1.28
1764746476.611727,1.3
1764746476.61836,2.18
1764746476.6243808,2.35
1764746476.630583,2.27
1764746476.636932,2.78
1764746476.6430562,2.81
1764746476.649187,2.7
1764746476.655489,2.73
1764746476.661793,2.33
1764746476.668055,2.25
1764746476.674321,2.18
1764746476.6804311,1.74
1764746476.6867242,1.89
1764746476.69394,2.12
1764746476.699239,1.81
1764746476.705579,1.8
1764746476.711734,2.15
1764746476.717953,2.18
1764746476.724244,2.09
1764746476.730463,2.19
1764746476.736741,2.44
1764746476.743007,2.1
1764746476.7493298,1.74
1764746476.755567,2.12
1764746476.761777,2.62
1764746476.767979,3.09
1764746476.774368,3.04
1764746476.780662,2.49
1764746476.786764,1.39
1764746476.793569,1.03
1764746476.799179,1.77
1764746476.805363,1.71
1764746476.8116622,0.96
1764746476.8179111,1.09
1764746476.8242218,1.45
1764746476.8304589,2.07
1764746476.8366458,2.83
1764746476.842934,2.97
1764746476.849157,3.14
1764746476.8555,2.46
1764746476.861708,1.35
1764746476.867917,1.33
1764746476.874316,1.61
1764746476.880539,1.53
1764746476.886799,1.4
1764746476.893085,1.44
1764746476.899263,1.52
1764746476.9056,1.73
1764746476.9118211,1.76
1764746476.9180648,1.5
1764746476.924638,1.47
1764746476.9305332,1.48
1764746476.936804,1.57
1764746476.943166,1.5
1764746476.949257,1.39
1764746476.955532,1.71
1764746476.961696,1.79
1764746476.9679492,1.65
1764746476.974127,1.74
1764746476.980756,1.64
1764746476.986787,2.14
1764746476.993109,1.96
1764746476.999156,1.69
1764746477.005704,1.96
1764746477.011734,1.91
1764746477.017955,1.8
1764746477.024338,1.83
1764746477.030474,1.89
1764746477.0366988,2.15
1764746477.043188,2.01
1764746477.049304,1.84
1764746477.05556,1.92
1764746477.061755,1.61
1764746477.068067,1.87
1764746477.074353,2.24
1764746477.08065,2.14
1764746477.08672,1.97
1764746477.093201,2.01
1764746477.0991738,2.12
1764746477.105644,1.94
1764746477.1117282,1.42
1764746477.1179829,1.12
1764746477.1242309,0.66
1764746477.13052,0.85
1764746477.136703,0.81
1764746477.143142,0.56
1764746477.149227,0.62
1764746477.155516,0.81
1764746477.1618922,0.69
1764746477.167997,0.53
1764746477.17407,0.0
1764746477.180552,0.0
1764746477.186612,0.0
1764746477.193026,0.0
1764746477.199237,0.0
1764746477.205438,0.29
1764746477.211827,1.18
1764746477.217843,1.66
1764746477.2241778,2.55
1764746477.230496,3.15
1764746477.236764,3.16
1764746477.243087,2.72
1764746477.249244,1.2
1764746477.255473,0.97
1764746477.261727,1.58
1764746477.267939,1.68
1764746477.274278,1.35
1764746477.28058,1.13
1764746477.286686,1.22
1764746477.293046,1.22
1764746477.299286,1.16
1764746477.3055658,1.11
1764746477.31172,1.05
1764746477.31789,1.08
1764746477.32426,1.26
1764746477.3304288,1.41
1764746477.336715,1.61
1764746477.342928,1.68
1764746477.3492422,1.52
1764746477.355404,1.73
1764746477.3616672,1.84
1764746477.367868,1.8
1764746477.37441,1.75
1764746477.380506,1.77
1764746477.38665,1.84
1764746477.392974,1.78
1764746477.3991182,1.7
1764746477.405395,1.67
1764746477.411642,1.48
1764746477.417868,1.72
1764746477.424196,1.92
1764746477.4304588,1.26
1764746477.436648,0.91
1764746477.4431329,1.21
1764746477.449134,1.6
1764746477.45537,1.83
1764746477.461668,1.49
1764746477.467908,1.21
1764746477.474146,1.22
1764746477.480545,1.25
1764746477.486639,1.47
1764746477.492993,1.55
1764746477.499159,1.36
1764746477.505381,1.18
1764746477.511679,1.02
1764746477.5178728,1.29
1764746477.5242,1.66
1764746477.530581,1.52
1764746477.536747,1.39
1764746477.5428102,1.6
1764746477.549068,1.78
1764746477.555391,2.36
1764746477.561562,2.47
1764746477.567884,2.27
1764746477.57409,2.25
1764746477.58036,2.02
1764746477.5865102,1.79
1764746477.593364,1.47
1764746477.599023,1.42
1764746477.605288,1.62
1764746477.611514,1.48
1764746477.617779,1.22
1764746477.624293,1.35
1764746477.630235,1.53
1764746477.636502,1.96
1764746477.642952,1.76
1764746477.649017,1.3
1764746477.655303,1.63
1764746477.6615438,1.54
1764746477.667947,1.54
1764746477.6741602,1.98
1764746477.680288,2.57
1764746477.686666,3.16
1764746477.6928,3.15
1764746477.699001,2.48
1764746477.705245,1.22
1764746477.711478,1.09
1764746477.7178712,2.12
1764746477.723964,1.49
1764746477.7302709,0.0
1764746477.736552,0.43
1764746477.742854,1.19
1764746477.749025,0.7
1764746477.7553,1.16
1764746477.7615309,1.6
1764746477.767784,1.5
1764746477.77405,1.41
1764746477.780299,1.28
1764746477.786547,1.51
1764746477.792924,1.46
1764746477.798945,1.16
1764746477.8052568,1.18
1764746477.811521,1.48
1764746477.817767,1.43
1764746477.824158,0.97
1764746477.830264,1.18
1764746477.885563,1.74
1764746477.885822,1.85
1764746477.921066,1.91
1764746477.921355,2.11
1764746477.9215958,1.89
1764746477.921841,1.74
1764746477.9220722,1.91
1764746477.932435,1.98
1764746477.932791,2.06
1764746477.9376352,1.9
1764746477.9378738,1.73
1764746477.938089,1.84
1764746477.938318,1.5
1764746477.938535,1.49
1764746477.938755,1.79
1764746477.938967,1.64
1764746477.939182,1.52
1764746477.970398,1.82
1764746477.971154,1.87
1764746477.971481,1.9
1764746477.971967,1.78
1764746477.9722528,1.77
1764746477.97462,1.96
1764746477.9803038,1.83
1764746477.986592,1.7
1764746477.9971142,1.85
1764746477.998992,1.83
1764746478.0052109,1.81
1764746478.011703,1.87
1764746478.017647,2.41
1764746478.024123,2.83
1764746478.0302238,1.83
1764746478.036499,1.29
1764746478.042816,1.74
1764746478.048987,2.35
1764746478.055321,2.58
1764746478.061492,1.82
1764746478.067699,1.64
1764746478.0742242,1.96
1764746478.080242,1.94
1764746478.086466,1.95
1764746478.0927942,1.96
1764746478.098948,1.73
1764746478.105262,1.61
1764746478.111465,1.45
1764746478.117664,1.38
1764746478.124165,1.47
1764746478.1302311,1.51
1764746478.136484,2.01
1764746478.142717,2.86
1764746478.148942,3.01
1764746478.155205,2.82
1764746478.161403,1.81
1764746478.167711,1.01
1764746478.174008,1.5
1764746478.180358,1.6
1764746478.186395,1.29
1764746478.192726,1.27
1764746478.1990132,1.12
1764746478.205361,1.05
1764746478.21136,1.07
1764746478.2177038,1.01
1764746478.223976,0.97
1764746478.2303371,0.9
1764746478.236463,1.02
1764746478.242888,1.05
1764746478.2490208,1.35
1764746478.255241,1.85
1764746478.261464,2.07
1764746478.267683,2.28
1764746478.2739809,2.29
1764746478.280122,2.39
1764746478.286345,2.79
1764746478.2929122,3.1
1764746478.299061,2.9
1764746478.305351,2.47
1764746478.31153,1.83
1764746478.3178408,1.62
1764746478.324044,1.88
1764746478.330237,1.46
1764746478.3365629,0.73
1764746478.3427358,0.95
1764746478.3490071,1.4
1764746478.355371,1.38
1764746478.361483,1.01
1764746478.367718,0.69
1764746478.3741682,0.96
1764746478.380267,0.9
1764746478.386432,0.96
1764746478.393118,1.29
1764746478.399114,1.28
1764746478.405278,1.08
1764746478.4114602,0.87
1764746478.4177878,0.95
1764746478.424062,1.1
1764746478.43037,1.31
1764746478.436574,1.04
1764746478.442875,0.95
1764746478.4490528,1.27
1764746478.455206,1.55
1764746478.461427,1.42
1764746478.4677792,1.33
1764746478.474974,1.62
1764746478.480122,1.75
1764746478.486292,1.7
1764746478.49287,1.67
1764746478.498975,1.57
1764746478.505165,1.49
1764746478.511408,1.26
1764746478.517618,1.37
1764746478.523959,1.57
1764746478.530066,1.48
1764746478.536323,1.56
1764746478.54263,1.75
1764746478.548906,1.71
1764746478.555056,1.78
1764746478.561343,1.79
1764746478.5676212,1.67
1764746478.57393,1.59
1764746478.580201,1.36
1764746478.586643,1.29
1764746478.5926342,1.43
1764746478.598992,1.98
1764746478.605085,2.69
1764746478.611456,2.68
1764746478.617576,2.36
1764746478.623925,1.38
1764746478.630196,0.75
1764746478.636348,0.96
1764746478.6429088,1.03
1764746478.6488671,0.95
1764746478.655074,1.12
1764746478.661398,1.23
1764746478.667584,1.27
1764746478.674111,1.44
1764746478.6800342,1.5
1764746478.686246,1.59
1764746478.692841,1.62
1764746478.6987462,1.41
1764746478.705056,1.45
1764746478.711348,1.42
1764746478.717656,1.29
1764746478.72398,1.37
1764746478.7300632,1.33
1764746478.736293,1.43
1764746478.742764,1.54
1764746478.748951,1.49
1764746478.7551591,1.5
1764746478.761421,1.52
1764746478.767607,1.61
1764746478.774111,1.75
1764746478.780139,1.82
1764746478.786498,1.93
1764746478.792704,1.9
1764746478.798992,1.6
1764746478.805256,1.57
1764746478.811359,1.8
1764746478.817654,1.75
1764746478.82392,1.51
1764746478.8301811,1.33
1764746478.836569,1.44
1764746478.8427598,1.88
1764746478.848858,1.51
1764746478.855054,1.5
1764746478.8616629,2.19
1764746478.8675609,2.28
1764746478.876339,2.19
1764746478.8799949,2.35
1764746478.886186,2.52
1764746478.892729,2.31
1764746478.898658,2.08
1764746478.904955,1.65
1764746478.911268,1.81
1764746478.917491,2.1
1764746478.9239,2.29
1764746478.930033,2.51
1764746478.936193,1.94
1764746478.943124,1.44
1764746478.948939,2.24
1764746478.955072,2.24
1764746478.961326,1.91
1764746478.967555,1.74
1764746478.973763,1.84
1764746478.980132,1.76
1764746478.986353,2.06
1764746478.992695,2.11
1764746478.99876,1.55
1764746479.0050628,1.66
1764746479.011344,1.86
1764746479.017625,1.5
1764746479.023853,1.47
1764746479.0299652,1.71
1764746479.036275,1.5
1764746479.043777,1.33
1764746479.04874,1.55
1764746479.0549529,2.4
1764746479.06129,3.14
1764746479.067425,3.14
1764746479.07423,3.14
1764746479.079962,2.61
1764746479.086202,1.21
1764746479.0925598,1.32
1764746479.098709,1.82
1764746479.1049862,1.76
1764746479.111424,1.5
1764746479.1176262,1.52
1764746479.124933,1.52
1764746479.130046,1.28
1764746479.1362891,1.29
1764746479.142545,1.5
1764746479.149016,1.43
1764746479.155061,1.51
1764746479.16141,1.74
1764746479.167545,1.91
1764746479.17426,2.06
1764746479.180033,1.97
1764746479.1862972,2.02
1764746479.193057,2.02
1764746479.19882,1.92
1764746479.20503,1.94
1764746479.2112892,1.85
1764746479.21759,1.79
1764746479.223852,1.91
1764746479.229929,1.97
1764746479.236265,2.02
1764746479.242936,1.79
1764746479.248692,1.68
1764746479.2549682,1.73
1764746479.2612102,1.73
1764746479.267412,1.73
1764746479.273777,1.79
1764746479.2799308,1.73
1764746479.286158,1.73
1764746479.292435,1.76
1764746479.298681,1.68
1764746479.304863,1.74
1764746479.311167,1.68
1764746479.31749,1.59
1764746479.323786,1.63
1764746479.329973,1.74
1764746479.336222,1.49
1764746479.342572,1.39
1764746479.3487868,1.54
1764746479.355189,1.59
1764746479.361172,1.5
1764746479.367543,1.52
1764746479.373784,1.6
1764746479.379968,1.62
1764746479.386142,1.71
1764746479.393089,1.74
1764746479.3986812,1.9
1764746479.4050748,1.63
1764746479.411218,1.32
1764746479.417583,1.52
1764746479.423787,1.6
1764746479.43025,1.27
1764746479.4362,1.14
1764746479.442535,1.22
1764746479.4487412,1.11
1764746479.454931,1.15
1764746479.461234,1.31
1764746479.4675672,1.4
1764746479.47388,1.42
1764746479.479917,1.39
1764746479.486202,1.48
1764746479.493134,1.54
1764746479.498768,1.57
1764746479.505007,1.65
1764746479.511285,2.22
1764746479.51742,3.01
1764746479.523763,3.13
1764746479.529862,2.72
1764746479.536191,1.11
1764746479.542802,0.43
1764746479.548723,0.59
1764746479.5552268,0.35
1764746479.563542,0.1
1764746479.568656,0.32
1764746479.5801249,0.77
1764746479.583466,0.72
1764746479.5950952,0.57
1764746479.5952709,1.5
1764746479.598939,0.97
1764746479.611369,0.25
1764746479.611622,1.03
1764746479.617287,1.39
1764746479.632606,0.88
1764746479.632761,0.92
1764746479.636286,1.05
1764746479.642444,1.01
1764746479.648646,1.21
1764746479.654985,1.23
1764746479.661336,0.98
1764746479.667412,1.02
1764746479.6738188,1.26
1764746479.6800928,1.27
1764746479.686214,1.32
1764746479.6925051,1.59
1764746479.7031271,1.63
1764746479.714209,1.8
1764746479.7146392,1.85
1764746479.7174091,1.78
1764746479.727839,1.81
1764746479.729853,1.51
1764746479.736184,1.51
1764746479.746161,1.44
1764746479.748607,1.1
1764746479.755049,1.25
1764746479.7611892,1.3
1764746479.767497,1.3
1764746479.773653,1.39
1764746479.7798111,1.47
1764746479.786272,1.51
1764746479.792515,1.38
1764746479.7985651,1.74
1764746479.804742,1.79
1764746479.8110569,1.61
1764746479.817256,1.74
1764746479.823603,1.81
1764746479.829869,1.75
1764746479.83613,1.97
1764746479.842361,2.31
1764746479.848611,2.25
1764746479.854808,1.97
1764746479.861086,1.64
1764746479.8673332,1.55
1764746479.8737128,1.85
1764746479.879989,1.73
1764746479.886226,1.48
1764746479.89244,1.48
1764746479.898586,1.39
1764746479.90484,1.56
1764746479.911072,1.61
1764746479.917309,1.25
1764746479.924177,1.24
1764746479.929803,1.24
1764746479.9360929,1.3
1764746479.942356,1.3
1764746479.948513,1.19
1764746479.9548311,1.3
1764746479.961092,1.2
1764746479.967233,1.32
1764746479.973741,2.36
1764746479.979807,2.86
1764746479.986283,2.58
1764746479.992401,1.8
1764746479.998695,0.81
1764746480.004919,0.79
1764746480.011103,1.32
1764746480.017306,1.46
1764746480.0239491,1.22
1764746480.0298529,1.04
1764746480.036237,1.42
1764746480.0424662,1.32
1764746480.048788,1.11
1764746480.054965,1.64
1764746480.061044,1.54
1764746480.067556,1.26
1764746480.07435,1.61
1764746480.079871,1.74
1764746480.086038,1.77
1764746480.0923488,1.77
1764746480.098573,1.8
1764746480.1049302,2.0
1764746480.1111062,1.79
1764746480.11747,1.9
1764746480.124776,1.54
1764746480.129812,1.56
1764746480.136016,2.03
1764746480.1424398,1.97
1764746480.148557,1.22
1764746480.154837,1.51
1764746480.161063,1.7
1764746480.167198,1.37
1764746480.1738088,1.34
1764746480.179755,1.28
1764746480.1861272,1.19
1764746480.192385,1.39
1764746480.198556,1.31
1764746480.204691,1.52
1764746480.2109492,1.79
1764746480.217226,1.79
1764746480.224313,1.51
1764746480.229758,1.48
1764746480.236065,1.64
1764746480.242327,1.84
1764746480.248613,2.0
1764746480.254828,2.11
1764746480.261036,1.84
1764746480.267406,1.63
1764746480.273698,1.96
1764746480.279794,1.81
1764746480.286101,1.83
1764746480.292593,2.03
1764746480.298503,1.78
1764746480.3051698,1.93
1764746480.311008,2.2
1764746480.3176472,1.89
1764746480.323933,1.75
1764746480.32977,1.9
1764746480.336146,1.68
1764746480.342438,1.41
1764746480.348482,1.31
1764746480.354729,1.48
1764746480.3610082,1.46
1764746480.3672068,1.39
1764746480.374057,1.63
1764746480.379617,1.75
1764746480.386015,1.67
1764746480.3922791,1.75
1764746480.3984818,1.74
1764746480.404681,1.64
1764746480.410953,1.44
1764746480.417161,1.46
1764746480.424214,1.66
1764746480.429657,2.11
1764746480.436196,3.02
1764746480.442341,3.1
1764746480.448468,1.45
1764746480.454771,0.0
1764746480.4610088,0.59
1764746480.4671192,1.44
1764746480.4737768,1.43
1764746480.479639,1.24
1764746480.4861372,1.47
1764746480.492247,1.48
1764746480.498467,1.13
1764746480.5046332,1.4
1764746480.510939,1.56
1764746480.5173068,1.13
1764746480.5237298,1.52
1764746480.529674,1.52
1764746480.535976,1.26
1764746480.54228,1.6
1764746480.548501,1.64
1764746480.554817,1.71
1764746480.560926,1.71
1764746480.5671911,1.57
1764746480.574471,1.62
1764746480.5796092,1.58
1764746480.5859442,1.64
1764746480.592233,1.98
1764746480.598506,1.89
1764746480.604758,1.6
1764746480.611004,1.53
1764746480.617166,1.53
1764746480.623542,1.54
1764746480.629644,1.42
1764746480.636157,1.43
1764746480.642308,1.54
1764746480.648561,1.5
1764746480.654878,1.6
1764746480.660977,1.61
1764746480.667226,1.76
1764746480.673533,1.8
1764746480.679724,1.82
1764746480.685993,1.91
1764746480.692193,1.35
1764746480.698686,1.32
1764746480.704797,1.99
1764746480.710998,1.57
1764746480.717344,1.22
1764746480.723559,1.53
1764746480.729632,1.52
1764746480.735869,1.51
1764746480.742201,1.89
1764746480.748505,2.09
1764746480.754713,2.0
1764746480.760912,2.29
1764746480.7671292,1.75
1764746480.773591,0.6
1764746480.7797902,0.8
1764746480.785942,0.87
1764746480.7922502,0.53
1764746480.798505,0.23
1764746480.804857,0.46
1764746480.810955,1.22
1764746480.817304,1.75
1764746480.823429,1.78
1764746480.829587,1.9
1764746480.835901,2.06
1764746480.842292,2.2
1764746480.8484402,1.99
1764746480.854926,2.0
1764746480.861043,2.14
1764746480.8674529,1.64
1764746480.873458,1.54
1764746480.879591,1.75
1764746480.8858151,2.21
1764746480.892159,3.1
1764746480.898508,3.15
1764746480.904584,3.0
1764746480.910859,1.76
1764746480.917136,0.92
1764746480.923889,1.56
1764746480.9295402,1.72
1764746480.935839,1.33
1764746480.9421089,1.4
1764746480.948302,1.43
1764746480.954571,1.46
1764746480.9608052,1.4
1764746480.9670038,1.35
1764746480.973426,1.62
1764746480.9795048,1.51
1764746480.985806,1.45
1764746480.991978,1.56
1764746480.998355,1.46
1764746481.004575,1.51
1764746481.0107489,1.43
1764746481.017088,1.23
1764746481.023869,1.32
1764746481.02957,1.32
1764746481.035767,1.33
1764746481.042044,1.36
1764746481.0484102,1.63
1764746481.054765,1.66
1764746481.060894,1.09
1764746481.0670831,0.98
1764746481.073757,1.31
1764746481.079511,1.38
1764746481.0857909,1.42
1764746481.092004,1.43
1764746481.098284,1.27
1764746481.1045198,1.35
1764746481.110754,1.31
1764746481.1170702,1.16
1764746481.123515,1.24
1764746481.129579,1.12
1764746481.135754,1.09
1764746481.142047,1.29
1764746481.148299,1.29
1764746481.154651,1.29
1764746481.160948,1.42
1764746481.167091,1.54
1764746481.173408,1.84
1764746481.1795158,1.77
1764746481.185837,1.62
1764746481.192064,1.69
1764746481.198172,1.62
1764746481.2045922,1.43
1764746481.210711,1.35
1764746481.217024,1.43
1764746481.223401,1.71
1764746481.2294888,1.64
1764746481.235758,1.56
1764746481.242154,1.67
1764746481.24835,1.73
1764746481.25464,1.72
1764746481.2608588,1.45
1764746481.267049,1.6
1764746481.27368,1.75
1764746481.3250828,1.53
1764746481.329324,1.76
1764746481.33694,2.03
1764746481.337045,1.89
1764746481.337249,1.71
1764746481.342318,1.75
1764746481.342421,1.76
1764746481.342494,1.59
1764746481.342562,1.52
1764746481.342636,1.63
1764746481.342704,2.23
1764746481.350392,3.15
1764746481.356734,3.15
1764746481.369431,3.0
1764746481.369649,1.01
1764746481.373329,0.0
1764746481.379554,0.62
1764746481.389317,0.92
1764746481.395592,0.76
1764746481.39821,0.76
1764746481.404543,0.72
1764746481.410811,0.5
1764746481.41723,0.68
1764746481.42326,1.01
1764746481.429557,1.01
1764746481.435706,1.0
1764746481.4420302,1.38
1764746481.44838,1.61
1764746481.454706,1.7
1764746481.460779,1.75
1764746481.46704,1.86
1764746481.473421,2.05
1764746481.479537,2.01
1764746481.4857569,1.98
1764746481.491905,2.03
1764746481.498136,1.94
1764746481.504535,2.02
1764746481.510731,2.19
1764746481.51691,2.14
1764746481.5232031,2.12
1764746481.529421,2.02
1764746481.5357382,1.93
1764746481.54202,1.83
1764746481.548162,1.56
1764746481.554515,1.75
1764746481.560763,1.88
1764746481.566882,1.72
1764746481.573384,1.6
1764746481.579371,1.63
1764746481.585706,1.6
1764746481.5919292,1.62
1764746481.598198,1.65
1764746481.604407,1.81
1764746481.610729,1.82
1764746481.616879,1.67
1764746481.623221,1.62
1764746481.629507,1.5
1764746481.6357372,1.58
1764746481.641959,1.69
1764746481.648192,1.62
1764746481.6544142,1.71
1764746481.6606212,1.71
1764746481.666924,1.79
1764746481.673223,1.97
1764746481.679592,2.2
1764746481.68576,2.38
1764746481.691901,2.23
1764746481.698167,1.74
1764746481.704436,2.55
1764746481.7106218,3.09
1764746481.7169468,2.12
1764746481.7233212,1.7
1764746481.729406,1.91
1764746481.735651,1.95
1764746481.741898,1.74
1764746481.7481642,1.72
1764746481.754415,1.74
1764746481.760643,1.83
1764746481.766824,2.01
1764746481.773246,2.34
1764746481.779525,2.7
1764746481.785577,2.89
1764746481.7918952,2.91
1764746481.798193,3.05
1764746481.804402,3.16
1764746481.810556,3.16
1764746481.8168142,3.17
1764746481.8232331,3.17
1764746481.8294148,3.17
1764746481.835722,3.17
1764746481.841897,3.17
1764746481.848094,3.17
1764746481.854472,3.17
1764746481.860586,3.17
1764746481.8668108,3.17
1764746481.87332,3.17
1764746481.879425,3.17
1764746481.885682,3.17
1764746481.89185,3.17
1764746481.8982751,3.17
1764746481.904374,3.17
1764746481.910645,3.17
1764746481.916874,3.17
1764746481.923203,3.17
1764746481.929402,3.17
1764746481.9357271,3.16
1764746481.9418612,3.16
1764746481.948106,3.16
1764746481.954428,3.16
1764746481.9605608,3.16
1764746481.966768,3.16
1764746481.973121,3.15
1764746481.979392,3.14
1764746481.985617,3.14
1764746481.9918258,3.12
1764746481.998065,3.16
1764746482.004426,3.17
1764746482.010527,3.16
1764746482.016804,3.16
1764746482.023118,3.16
1764746482.029397,3.16
1764746482.035611,3.16
1764746482.041804,3.16
1764746482.048117,3.16
1764746482.054422,3.16
1764746482.060578,3.15
1764746482.066776,3.15
1764746482.073218,3.15
1764746482.0794728,3.15
1764746482.085633,3.15
1764746482.091823,3.15
1764746482.098158,3.15
1764746482.104384,3.14
1764746482.110441,3.13
1764746482.116912,3.05
1764746482.123119,2.54
1764746482.129324,2.23
1764746482.1355882,2.08
1764746482.1418052,1.8
1764746482.148095,1.77
1764746482.154303,1.49
1764746482.16054,1.24
1764746482.166804,1.52
1764746482.173057,1.18
1764746482.179379,0.97
1764746482.185573,1.07
1764746482.1918342,0.78
1764746482.198187,0.94
1764746482.204347,1.05
1764746482.210567,0.71
1764746482.216736,0.58
1764746482.223125,0.2
1764746482.229378,0.0
1764746482.235662,0.09
1764746482.241763,0.0
1764746482.247991,0.0
1764746482.254358,0.0
1764746482.260736,0.0
1764746482.267194,0.0
1764746482.273081,0.3
1764746482.279286,0.43
1764746482.285576,0.0
1764746482.291886,0.0
1764746482.29809,0.0
1764746482.30438,0.0
1764746482.310562,0.0
1764746482.316736,0.0
1764746482.3231528,0.0
1764746482.3292842,0.0
1764746482.335541,0.0
1764746482.341689,0.0
1764746482.348088,0.0
1764746482.354306,0.0
1764746482.360511,0.0
1764746482.3667672,0.0
1764746482.373106,0.0
1764746482.3792388,0.0
1764746482.385658,0.0
1764746482.3918111,0.0
1764746482.398062,0.0
1764746482.4043038,0.0
1764746482.410501,0.0
1764746482.4167511,0.0
1764746482.423035,0.0
1764746482.429269,0.0
1764746482.4355,0.0
1764746482.441765,0.0
1764746482.448085,0.0
1764746482.454358,0.0
1764746482.460499,0.0
1764746482.46674,0.0
1764746482.47305,0.0
1764746482.479224,0.0
1764746482.485448,0.0
1764746482.4917471,0.0
1764746482.4979289,0.0
1764746482.504267,0.0
1764746482.510518,0.0
1764746482.516829,0.0
1764746482.523015,0.0
1764746482.5292149,0.0
1764746482.535479,0.21
1764746482.5417228,0.05
1764746482.5480692,0.0
1764746482.554543,0.0
1764746482.560443,0.0
1764746482.566688,0.0
1764746482.5732749,0.0
1764746482.5793111,0.0
1764746482.585534,0.0
1764746482.591708,0.0
1764746482.598144,0.0
1764746482.604279,0.0
1764746482.610502,0.0
1764746482.616724,0.44
1764746482.623176,0.73
1764746482.629201,0.7
1764746482.635425,0.56
1764746482.641736,0.54
1764746482.647924,0.85
1764746482.654371,0.87
1764746482.660419,0.63
1764746482.6667929,0.78
1764746482.6730418,0.88
1764746482.679202,0.73
1764746482.685407,0.69
1764746482.691644,0.68
1764746482.697966,0.93
1764746482.704166,1.07
1764746482.710401,1.01
1764746482.716626,1.45
1764746482.723027,2.19
1764746482.729131,2.33
1764746482.735486,2.04
1764746482.741631,1.0
1764746482.7478888,0.0
1764746482.754335,0.34
1764746482.76041,0.75
1764746482.7667148,0.65
1764746482.773119,0.41
1764746482.783651,0.49
1764746482.794542,0.63
1764746482.800344,0.49
1764746482.817451,0.5
1764746482.8176131,0.53
1764746482.833655,0.5
1764746482.841368,0.63
1764746482.841572,0.53
1764746482.84173,0.44
1764746482.842141,0.65
1764746482.8422558,0.63
1764746482.84797,0.64
1764746482.855312,0.59
1764746482.862928,0.29
1764746482.866673,0.48
1764746482.8730712,0.64
1764746482.879543,0.53
1764746482.885448,0.66
1764746482.891834,0.66
1764746482.89801,0.66
1764746482.904311,0.66
1764746482.91051,0.61
1764746482.916815,0.66
1764746482.922988,0.63
1764746482.929194,0.5
1764746482.935694,0.6
1764746482.941741,0.51
1764746482.9481869,0.49
1764746482.9577322,0.69
1764746482.961133,0.76
1764746482.9668438,0.8
1764746482.972945,0.71
1764746482.97915,0.65
1764746482.9854631,0.82
1764746482.99172,0.8
1764746482.997798,0.93
1764746483.004183,1.01
1764746483.010507,0.75
1764746483.0166242,0.83
1764746483.0230248,0.83
1764746483.029155,0.74
1764746483.035378,0.87
1764746483.041644,1.0
1764746483.047839,1.06
1764746483.0544362,1.1
1764746483.0602958,1.34
1764746483.066714,1.5
1764746483.072932,1.48
1764746483.079185,1.55
1764746483.085331,1.7
1764746483.0916748,1.41
1764746483.0978382,1.32
1764746483.10454,1.71
1764746483.1104078,1.43
1764746483.116797,1.24
1764746483.122944,1.47
1764746483.129258,1.57
1764746483.135349,1.48
1764746483.1416872,1.54
1764746483.1478558,1.42
1764746483.154171,0.9
1764746483.16039,0.74
1764746483.166563,0.8
1764746483.172842,0.97
1764746483.1791182,1.47
1764746483.18534,2.47
1764746483.191711,2.56
1764746483.197907,1.94
1764746483.2041888,1.12
1764746483.210286,0.56
1764746483.216852,0.87
1764746483.223194,1.22
1764746483.229155,1.14
1764746483.235316,1.16
1764746483.241624,1.48
1764746483.2478578,1.48
1764746483.254186,1.27
1764746483.260479,1.17
1764746483.266863,1.28
1764746483.273165,1.31
1764746483.279106,1.3
1764746483.285377,1.4
1764746483.291748,1.49
1764746483.2979488,1.55
1764746483.3041868,1.52
1764746483.310443,1.65
1764746483.3168168,1.72
1764746483.322984,1.55
1764746483.329122,1.36
1764746483.335487,1.39
1764746483.34161,1.34
1764746483.3478038,1.41
1764746483.354194,1.65
1764746483.3603892,1.69
1764746483.366578,1.7
1764746483.372913,1.75
1764746483.379027,1.77
1764746483.385378,1.8
1764746483.39151,1.63
1764746483.3978088,1.63
1764746483.404149,1.56
1764746483.41022,1.39
1764746483.416484,1.52
1764746483.422842,1.5
1764746483.4290318,1.42
1764746483.4352052,1.49
1764746483.441531,1.43
1764746483.447814,1.5
1764746483.454165,1.55
1764746483.460333,1.55
1764746483.466606,1.61
1764746483.472835,1.52
1764746483.478952,1.43
1764746483.485208,1.48
1764746483.491604,1.41
1764746483.497806,1.61
1764746483.5041611,1.87
1764746483.5102878,1.75
1764746483.516441,2.09
1764746483.5227258,1.8
1764746483.529032,0.96
1764746483.535189,1.05
1764746483.5415611,1.45
1764746483.5476532,1.41
1764746483.5540962,1.38
1764746483.560321,1.28
1764746483.566474,1.18
1764746483.5728471,1.22
1764746483.579036,1.3
1764746483.585372,1.52
1764746483.591659,1.49
1764746483.5978189,1.44
1764746483.604392,1.39
1764746483.610355,1.43
1764746483.616499,1.45
1764746483.623585,1.43
1764746483.628953,1.4
1764746483.635205,1.54
1764746483.641576,1.83
1764746483.647755,2.79
1764746483.654421,3.14
1764746483.660276,3.14
1764746483.666559,2.76
1764746483.673088,1.34
1764746483.6790102,1.29
1764746483.6852238,2.17
1764746483.691541,2.11
1764746483.697767,1.74
1764746483.704128,1.81
1764746483.710321,1.79
1764746483.716523,1.81
1764746483.723038,1.79
1764746483.729103,1.74
1764746483.735235,1.78
1764746483.7414908,1.64
1764746483.7477582,1.56
1764746483.754087,1.59
1764746483.760278,1.44
1764746483.7665448,1.51
1764746483.773066,1.58
1764746483.779001,1.35
1764746483.785281,1.51
1764746483.7916229,1.59
1764746483.797761,1.39
1764746483.803988,1.53
1764746483.810246,1.72
1764746483.816467,1.88
1764746483.822701,1.88
1764746483.829001,1.92
1764746483.8353002,2.05
1764746483.84156,2.03
1764746483.847768,2.01
1764746483.854012,2.12
1764746483.860321,2.16
1764746483.866635,2.12
1764746483.872844,2.11
1764746483.8790011,2.03
1764746483.8852851,2.17
1764746483.8916018,2.24
1764746483.8977711,2.24
1764746483.904028,2.15
1764746483.9103098,2.06
1764746483.91661,1.99
1764746483.922715,1.79
1764746483.92899,1.79
1764746483.935176,2.11
1764746483.941616,2.01
1764746483.9477398,2.01
1764746483.9539762,2.19
1764746483.960175,2.13
1764746483.9664938,2.16
1764746483.973032,2.19
1764746483.979008,2.16
1764746483.985336,2.06
1764746483.991669,2.11
1764746483.9978309,2.32
1764746484.004034,2.37
1764746484.010316,2.23
1764746484.016508,2.15
1764746484.02279,2.18
1764746484.0288692,2.01
1764746484.03513,1.7
1764746484.041368,1.6
1764746484.047689,1.75
1764746484.05392,1.71
1764746484.060182,1.53
1764746484.066472,1.62
1764746484.0726771,1.64
1764746484.078876,1.53
1764746484.085112,1.53
1764746484.0913951,1.6
1764746484.0976489,1.53
1764746484.104149,1.43
1764746484.110164,1.42
1764746484.116432,2.02
1764746484.122634,2.97
1764746484.128881,3.09
1764746484.1351109,2.64
1764746484.141346,1.47
1764746484.147697,0.87
1764746484.153971,1.3
1764746484.160223,1.5
1764746484.1664078,1.46
1764746484.1726348,1.53
1764746484.179187,1.6
1764746484.1852028,1.72
1764746484.191406,1.56
1764746484.197666,1.4
1764746484.203952,1.62
1764746484.210109,1.64
1764746484.2164118,1.57
1764746484.222785,1.7
1764746484.2289112,1.89
1764746484.23506,1.9
1764746484.2415302,1.85
1764746484.247658,1.86
1764746484.253972,1.94
1764746484.260142,1.99
1764746484.266336,2.05
1764746484.2725692,2.07
1764746484.2788951,2.04
1764746484.285119,2.09
1764746484.2914,2.04
1764746484.297589,2.07
1764746484.303966,2.09
1764746484.310167,2.39
1764746484.316372,2.33
1764746484.3226082,1.6
1764746484.328863,1.44
1764746484.335138,1.64
1764746484.3413591,1.28
1764746484.347627,1.25
1764746484.353995,1.57
1764746484.360297,1.65
1764746484.366527,1.59
1764746484.372884,1.4
1764746484.378777,1.3
1764746484.3851,1.81
1764746484.391331,1.84
1764746484.397587,1.47
1764746484.4038248,1.6
1764746484.41001,1.89
1764746484.4162738,1.99
1764746484.4225411,2.13
1764746484.428847,2.02
1764746484.4350688,1.96
1764746484.441283,1.88
1764746484.44761,1.91
1764746484.4541671,1.99
1764746484.460306,1.99
1764746484.466441,2.1
1764746484.488584,2.17
1764746484.489969,2.27
1764746484.490317,2.63
1764746484.493213,2.23
1764746484.514814,1.67
1764746484.533122,1.64
1764746484.539861,1.53
1764746484.540471,1.55
1764746484.540637,1.44
1764746484.540788,1.2
1764746484.573266,1.47
1764746484.573605,1.56
1764746484.574165,1.5
1764746484.574382,1.45
1764746484.574728,1.48
1764746484.57492,1.52
1764746484.57508,1.39
1764746484.5788631,1.32
1764746484.585215,1.99
1764746484.597474,2.95
1764746484.597926,3.13
1764746484.605826,2.83
1764746484.610218,1.22
1764746484.616492,0.67
1764746484.623591,1.37
1764746484.628875,1.41
1764746484.6351202,1.26
1764746484.641453,1.29
1764746484.647688,1.34
1764746484.654251,1.38
1764746484.660004,1.25
1764746484.666296,1.29
1764746484.672722,1.28
1764746484.678886,1.23
1764746484.685079,1.31
1764746484.6912131,1.15
1764746484.697539,1.17
1764746484.7037702,1.31
1764746484.709965,1.23
1764746484.716435,1.3
1764746484.7225542,1.32
1764746484.728748,1.33
1764746484.734995,1.44
1764746484.741195,1.47
1764746484.7475278,1.62
1764746484.753776,1.6
1764746484.759876,1.35
1764746484.766315,1.36
1764746484.7724931,1.52
1764746484.778752,1.65
1764746484.785036,1.63
1764746484.7912571,1.45
1764746484.797448,1.46
1764746484.804086,1.55
1764746484.809946,1.47
1764746484.816236,1.49
1764746484.8226109,1.64
1764746484.8287842,1.6
1764746484.834934,1.63
1764746484.841226,1.77
1764746484.847566,1.74
1764746484.8538182,1.76
1764746484.859918,1.67
1764746484.866325,1.78
1764746484.872492,1.86
1764746484.878763,1.72
1764746484.885043,2.09
1764746484.89119,2.1
1764746484.897441,1.97
1764746484.9037492,2.14
1764746484.909951,2.11
1764746484.9161458,2.14
1764746484.9224331,2.04
1764746484.92871,1.62
1764746484.935005,1.65
1764746484.941165,2.02
1764746484.947464,1.57
1764746484.954081,1.09
1764746484.959916,1.16
1764746484.966217,1.55
1764746484.972446,1.37
1764746484.978618,0.99
1764746484.984891,1.52
1764746484.991138,1.56
1764746484.997509,1.12
1764746485.0037172,1.38
1764746485.009892,1.55
1764746485.016145,1.54
1764746485.022453,1.54
1764746485.0287511,1.57
1764746485.035163,1.72
1764746485.0412018,1.49
1764746485.047521,1.18
1764746485.053704,1.44
1764746485.059962,2.16
1764746485.066272,3.14
1764746485.072511,3.17
1764746485.0786948,3.16
1764746485.085011,2.68
1764746485.0912929,1.51
1764746485.097601,1.3
1764746485.103801,1.39
1764746485.109937,1.02
1764746485.1162171,0.92
1764746485.1225002,1.22
1764746485.128696,1.14
1764746485.134948,1.16
1764746485.141223,1.17
1764746485.147524,1.17
1764746485.153724,1.33
1764746485.159999,1.3
1764746485.166315,1.31
1764746485.172532,1.36
1764746485.178674,1.34
1764746485.18493,1.57
1764746485.191158,1.58
1764746485.1974468,1.69
1764746485.204136,1.96
1764746485.209897,1.7
1764746485.216206,1.71
1764746485.222425,1.78
1764746485.2286909,1.6
1764746485.234952,1.73
1764746485.24115,1.69
1764746485.247415,1.53
1764746485.254228,1.52
1764746485.259868,1.41
1764746485.2661812,1.47
1764746485.272458,1.56
1764746485.27867,1.45
1764746485.284943,1.52
1764746485.291199,1.46
1764746485.297344,1.28
1764746485.3038678,1.17
1764746485.3098931,0.97
1764746485.316229,1.11
1764746485.322446,1.73
1764746485.328693,1.68
1764746485.334944,1.54
1764746485.341277,1.61
1764746485.3475242,1.7
1764746485.354113,1.78
1764746485.35995,1.67
1764746485.366196,1.71
1764746485.372311,1.71
1764746485.378613,1.49
1764746485.384898,1.53
1764746485.391169,1.57
1764746485.3973398,1.53
1764746485.403815,1.52
1764746485.409858,1.44
1764746485.416107,1.68
1764746485.422382,1.72
1764746485.428582,1.49
1764746485.434853,1.67
1764746485.44112,1.63
1764746485.447419,1.34
1764746485.453774,1.2
1764746485.459949,1.44
1764746485.4661162,1.56
1764746485.472353,1.48
1764746485.478584,1.41
1764746485.484822,1.58
1764746485.491053,1.57
1764746485.497336,1.65
1764746485.503654,1.72
1764746485.50985,1.63
1764746485.516041,1.75
1764746485.522378,1.8
1764746485.528546,1.63
1764746485.534873,2.07
1764746485.541184,2.76
1764746485.547387,2.53
1764746485.55363,1.82
1764746485.5598888,0.57
1764746485.566271,0.0
1764746485.5721989,0.35
1764746485.578573,0.55
1764746485.5848389,0.69
1764746485.590979,0.83
1764746485.597267,1.05
1764746485.603586,1.42
1764746485.609781,1.61
1764746485.616066,1.74
1764746485.622303,1.85
1764746485.628549,1.86
1764746485.634791,2.04
1764746485.641166,2.19
1764746485.647371,2.1
1764746485.653588,1.93
1764746485.659851,1.69
1764746485.666107,1.76
1764746485.6723452,1.81
1764746485.6784818,1.62
1764746485.6847749,1.68
1764746485.6910112,1.68
1764746485.697292,1.63
1764746485.703552,1.79
1764746485.709737,1.66
1764746485.716004,1.64
1764746485.7223191,1.75
1764746485.728549,1.55
1764746485.7347782,1.53
1764746485.741065,1.62
1764746485.7472582,1.68
1764746485.753597,1.74
1764746485.759744,1.67
1764746485.766021,1.74
1764746485.77237,1.8
1764746485.77851,1.64
1764746485.784781,1.71
1764746485.791046,1.68
1764746485.797365,1.6
1764746485.803553,1.73
1764746485.809709,1.64
1764746485.816046,1.54
1764746485.822261,1.62
1764746485.828458,1.57
1764746485.834757,1.67
1764746485.8410392,1.56
1764746485.8473349,1.42
1764746485.85394,1.64
1764746485.859752,1.48
1764746485.866,1.5
1764746485.872278,1.66
1764746485.878531,1.41
1764746485.884746,1.47
1764746485.891022,1.56
1764746485.8972712,1.53
1764746485.90358,1.65
1764746485.909755,1.56
1764746485.915968,1.62
1764746485.9223082,1.64
1764746485.928465,1.28
1764746485.934845,1.31
1764746485.9409971,1.37
1764746485.94722,1.24
1764746485.9535842,1.28
1764746485.9596958,1.23
1764746485.965909,1.28
1764746485.972224,1.36
1764746485.9784892,1.36
1764746485.984722,1.43
1764746485.991745,1.35
1764746486.002664,1.33
1764746486.0134752,1.7
1764746486.013742,2.08
1764746486.0356312,2.89
1764746486.0508668,3.13
1764746486.092194,2.57
1764746486.096641,1.57
1764746486.096857,0.9
1764746486.097326,1.14
1764746486.097622,1.5
1764746486.097885,1.22
1764746486.0981498,1.08
1764746486.098537,1.09
1764746486.0989928,0.91
1764746486.09937,1.19
1764746486.099854,1.32
1764746486.1001248,1.26
1764746486.103623,1.25
1764746486.11016,1.14
1764746486.116034,1.25
1764746486.122272,1.38
1764746486.128895,1.29
1764746486.134753,1.42
1764746486.140984,1.38
1764746486.147222,1.18
1764746486.153518,1.47
1764746486.159704,1.22
1764746486.166941,0.76
1764746486.172356,0.78
1764746486.17856,0.87
1764746486.184989,0.75
1764746486.190957,0.83
1764746486.197244,1.17
1764746486.203535,1.58
1764746486.209685,1.58
1764746486.2159848,1.56
1764746486.222172,1.67
1764746486.228547,1.63
1764746486.23488,1.66
1764746486.2409348,1.64
1764746486.247245,1.52
1764746486.25359,1.63
1764746486.259722,1.55
1764746486.266004,1.49
1764746486.272162,1.68
1764746486.278529,1.72
1764746486.284693,1.87
1764746486.290925,1.98
1764746486.297117,1.99
1764746486.303524,2.26
1764746486.309675,2.26
1764746486.315941,2.15
1764746486.3221262,2.1
1764746486.328448,1.9
1764746486.334676,1.87
1764746486.340899,1.75
1764746486.347179,1.65
1764746486.353708,1.75
1764746486.359801,1.45
1764746486.365967,1.54
1764746486.372326,2.01
1764746486.3785028,1.87
1764746486.384665,1.79
1764746486.3911092,1.86
1764746486.3970618,1.85
1764746486.403475,1.78
1764746486.409655,1.54
1764746486.416079,1.56
1764746486.4221618,1.58
1764746486.428458,1.2
1764746486.434703,1.17
1764746486.4409971,1.09
1764746486.447176,0.91
1764746486.453408,0.89
1764746486.45956,0.65
1764746486.465837,0.46
1764746486.4720871,0.49
1764746486.478348,0.32
1764746486.484725,0.46
1764746486.490891,1.25
1764746486.497162,1.95
1764746486.5037298,2.13
1764746486.5096471,1.75
1764746486.515893,0.77
1764746486.5221162,0.68
1764746486.528376,1.09
1764746486.534959,1.33
1764746486.5409331,1.35
1764746486.547213,1.35
1764746486.5536408,1.54
1764746486.5597172,1.59
1764746486.565929,1.56
1764746486.5721312,1.66
1764746486.578346,1.76
1764746486.584984,1.77
1764746486.5908558,1.84
1764746486.597141,1.86
1764746486.60394,1.89
1764746486.60962,1.81
1764746486.6160462,1.9
1764746486.6220548,1.92
1764746486.628321,1.59
1764746486.63456,1.6
1764746486.640843,1.59
1764746486.64706,1.42
1764746486.653592,1.47
1764746486.659616,1.53
1764746486.665938,1.56
1764746486.672071,1.64
1764746486.678282,1.74
1764746486.684581,1.9
1764746486.690861,1.9
1764746486.697121,1.66
1764746486.703448,1.7
1764746486.70962,1.58
1764746486.7158232,1.44
1764746486.722184,1.57
1764746486.72827,1.39
1764746486.7347982,1.37
1764746486.740741,1.27
1764746486.747044,1.01
1764746486.7533388,1.11
1764746486.759518,0.99
1764746486.76576,0.73
1764746486.77198,0.65
1764746486.778351,0.53
1764746486.7845,0.51
1764746486.790805,0.41
1764746486.797023,0.44
1764746486.803496,0.87
1764746486.809582,1.09
1764746486.815787,1.18
1764746486.822081,1.6
1764746486.828331,1.97
1764746486.834634,2.28
1764746486.8408818,2.65
1764746486.847008,2.79
1764746486.853287,2.69
1764746486.85954,2.48
1764746486.865858,2.3
1764746486.872065,2.27
1764746486.878249,1.91
1764746486.884568,1.66
1764746486.890899,1.73
1764746486.897079,1.83
1764746486.90328,1.99
1764746486.909577,1.99
1764746486.915723,1.97
1764746486.922013,2.02
1764746486.9282188,1.8
1764746486.9346912,1.71
1764746486.9408169,1.7
1764746486.94718,1.6
1764746486.953347,1.71
1764746486.9596002,1.8
1764746486.965996,2.41
1764746486.971964,3.16
1764746486.9782112,3.16
1764746486.984543,3.07
1764746486.990828,1.67
1764746486.997071,0.91
1764746487.003434,1.62
1764746487.009643,1.65
1764746487.015755,1.33
1764746487.02201,1.29
1764746487.028232,1.1
1764746487.034712,1.1
1764746487.040746,1.09
1764746487.046998,0.96
1764746487.053441,1.02
1764746487.05951,0.94
1764746487.065768,0.75
1764746487.072075,0.79
1764746487.078331,0.79
1764746487.084651,0.86
1764746487.090753,1.04
1764746487.097014,1.26
1764746487.103339,1.57
1764746487.1094558,1.8
1764746487.1158242,1.94
1764746487.12203,2.17
1764746487.128284,2.32
1764746487.134507,2.43
1764746487.14078,2.53
1764746487.147084,2.53
1764746487.1532748,2.54
1764746487.159429,2.54
1764746487.165813,2.55
1764746487.172006,2.43
1764746487.17829,2.17
1764746487.184664,2.11
1764746487.190763,2.05
1764746487.197043,1.84
1764746487.203221,1.91
1764746487.209535,1.79
1764746487.215745,1.73
1764746487.22194,1.94
1764746487.2282329,1.73
1764746487.234548,1.68
1764746487.240741,1.79
1764746487.246903,1.55
1764746487.253262,1.76
1764746487.259531,1.66
1764746487.2657762,1.46
1764746487.272014,1.66
1764746487.278215,1.67
1764746487.284576,1.76
1764746487.290738,1.81
1764746487.296981,1.61
1764746487.30322,1.86
1764746487.309451,1.86
1764746487.315677,1.74
1764746487.321942,1.95
1764746487.328184,2.04
1764746487.334432,1.99
1764746487.3406851,1.94
1764746487.347031,1.72
1764746487.353289,1.51
1764746487.359484,1.18
1764746487.365744,0.83
1764746487.371856,0.84
1764746487.378232,0.99
1764746487.3844512,1.31
1764746487.3907478,1.73
1764746487.397011,1.89
1764746487.403235,1.91
1764746487.409538,1.93
1764746487.415796,1.89
1764746487.421993,1.78
1764746487.428103,1.64
1764746487.434437,1.69
1764746487.4407418,1.77
1764746487.446961,2.16
1764746487.453595,3.13
1764746487.4594991,3.16
1764746487.4658198,3.16
1764746487.471873,2.7
1764746487.478144,1.38
1764746487.4844968,1.46
1764746487.490707,1.91
1764746487.497194,1.62
1764746487.503378,1.51
1764746487.509616,1.57
1764746487.5158248,1.57
1764746487.52217,1.59
1764746487.5283022,1.56
1764746487.5344372,1.62
1764746487.5406342,1.68
1764746487.54702,1.55
1764746487.5532532,1.68
1764746487.55953,1.67
1764746487.565713,1.63
1764746487.571945,1.83
1764746487.599573,1.78
1764746487.6009228,1.91
1764746487.601084,1.96
1764746487.60237,1.79
1764746487.603144,1.92
1764746487.6320488,1.85
1764746487.648791,1.83
1764746487.663858,1.92
1764746487.664905,1.68
1764746487.665148,1.64
1764746487.6653068,1.71
1764746487.6656718,1.63
1764746487.665815,1.69
1764746487.666025,1.61
1764746487.666267,1.62
1764746487.671942,1.77
1764746487.679719,1.68
1764746487.690869,1.72
1764746487.691479,1.8
1764746487.697272,1.75
1764746487.7043571,1.89
1764746487.709453,1.94
1764746487.7156491,1.89
1764746487.721905,1.99
1764746487.728184,1.85
1764746487.734447,1.87
1764746487.7406569,1.96
1764746487.7468958,1.8
1764746487.753165,1.85
1764746487.759539,1.9
1764746487.765545,1.9
1764746487.771843,2.07
1764746487.778095,1.93
1764746487.784308,1.89
1764746487.790594,2.05
1764746487.79684,1.8
1764746487.8032582,1.79
1764746487.8092952,1.82
1764746487.815609,1.83
1764746487.821814,1.81
1764746487.8281012,1.49
1764746487.834371,1.55
1764746487.840598,1.5
1764746487.846853,1.19
1764746487.85332,1.2
1764746487.859366,1.29
1764746487.8655958,1.3
1764746487.8717709,1.28
1764746487.878132,1.34
1764746487.884337,1.65
1764746487.89055,1.76
1764746487.8968298,1.61
1764746487.903218,1.58
1764746487.909339,1.52
1764746487.915599,1.56
1764746487.9219022,1.75
1764746487.928108,1.96
1764746487.934331,2.83
1764746487.940565,3.14
1764746487.94675,3.09
1764746487.953087,2.03
1764746487.959318,1.02
1764746487.965512,1.22
1764746487.971863,1.05
1764746487.978015,0.79
1764746487.984299,0.63
1764746487.990538,0.97
1764746487.996776,1.02
1764746488.003029,1.02
1764746488.009286,1.32
1764746488.015578,1.49
1764746488.021759,1.45
1764746488.028107,1.5
1764746488.0342982,1.62
1764746488.040568,1.66
1764746488.046788,1.64
1764746488.05308,1.76
1764746488.0593548,1.92
1764746488.065537,1.93
1764746488.071753,1.98
1764746488.078015,1.86
1764746488.084338,1.76
1764746488.090539,1.75
1764746488.096813,1.64
1764746488.103043,1.65
1764746488.109251,1.68
1764746488.115514,1.7
1764746488.121708,1.77
1764746488.128114,1.53
1764746488.1344929,1.45
1764746488.140511,1.45
1764746488.146754,1.33
1764746488.153066,1.22
1764746488.1592472,1.09
1764746488.165518,1.17
1764746488.171687,1.37
1764746488.177972,1.15
1764746488.184243,1.21
1764746488.1905038,1.31
1764746488.196768,1.16
1764746488.203095,1.38
1764746488.209261,1.46
1764746488.215468,1.32
1764746488.221762,1.35
1764746488.22799,1.3
1764746488.2342122,1.2
1764746488.240456,1.19
1764746488.246735,1.29
1764746488.252993,1.45
1764746488.25925,1.28
1764746488.265621,1.33
1764746488.271731,1.61
1764746488.277973,1.66
1764746488.284458,1.73
1764746488.290594,1.89
1764746488.296695,2.04
1764746488.303294,2.02
1764746488.309203,1.96
1764746488.315478,2.03
1764746488.321763,2.17
1764746488.3279722,1.95
1764746488.33427,1.77
1764746488.340392,1.76
1764746488.3467531,1.58
1764746488.3529549,1.48
1764746488.359215,1.47
1764746488.365443,1.35
1764746488.371653,1.25
1764746488.377981,1.12
1764746488.384361,1.12
1764746488.390503,1.16
1764746488.396696,1.25
1764746488.40308,1.52
1764746488.40926,1.55
1764746488.4157472,1.91
1764746488.421694,2.87
1764746488.427943,3.07
1764746488.43434,2.52
1764746488.440618,1.26
1764746488.446674,0.68
1764746488.45313,1.14
1764746488.459235,1.37
1764746488.465536,1.24
1764746488.471912,1.36
1764746488.477914,1.33
1764746488.48436,1.34
1764746488.490485,1.42
1764746488.496802,1.41
1764746488.503048,1.47
1764746488.5093088,1.48
1764746488.515514,1.51
1764746488.521693,1.55
1764746488.5278752,1.52
1764746488.534452,1.53
1764746488.5404649,1.53
1764746488.5466392,1.42
1764746488.552943,1.69
1764746488.55916,1.67
1764746488.565429,1.91
1764746488.571695,1.84
1764746488.577924,1.37
1764746488.584278,1.17
1764746488.590471,1.07
1764746488.596805,1.19
1764746488.602901,1.47
1764746488.609186,1.5
1764746488.61554,1.47
1764746488.621721,1.69
1764746488.627996,1.53
1764746488.634221,1.35
1764746488.640439,1.53
1764746488.64674,1.58
1764746488.652983,1.58
1764746488.659136,1.64
1764746488.665341,1.71
1764746488.6716769,1.73
1764746488.677897,1.64
1764746488.6845849,1.75
1764746488.690363,1.96
1764746488.6965902,1.89
1764746488.702861,1.9
1764746488.709118,1.85
1764746488.715393,1.58
1764746488.721575,1.38
1764746488.72792,1.3
1764746488.734823,1.24
1764746488.740323,1.21
1764746488.746644,1.04
1764746488.752875,1.01
1764746488.7591538,1.13
1764746488.765388,1.23
1764746488.771638,1.26
1764746488.777948,1.44
1764746488.784318,1.72
1764746488.790387,1.7
1764746488.796614,1.59
1764746488.802861,1.75
1764746488.80917,1.66
1764746488.815358,1.33
1764746488.8215418,1.2
1764746488.827907,1.2
1764746488.834392,1.19
1764746488.840291,1.17
1764746488.8465831,1.29
1764746488.852921,1.52
1764746488.859065,1.3
1764746488.865345,1.03
1764746488.8715332,0.94
1764746488.877894,1.14
1764746488.884485,1.08
1764746488.890362,1.18
1764746488.896566,1.52
1764746488.902868,2.04
1764746488.909079,2.87
1764746488.915425,3.14
1764746488.921534,3.09
1764746488.927842,2.11
1764746488.93439,1.09
1764746488.940364,1.42
1764746488.9467258,1.73
1764746488.9527838,1.57
1764746488.959232,1.47
1764746488.96528,1.38
1764746488.971566,1.42
1764746488.9779022,1.4
1764746488.9846349,1.31
1764746488.990287,1.45
1764746488.9966772,1.43
1764746489.0029042,1.42
1764746489.009269,1.58
1764746489.015381,1.59
1764746489.021686,1.49
1764746489.027895,1.37
1764746489.0344498,1.48
1764746489.040909,1.47
1764746489.0465002,1.3
1764746489.053237,1.46
1764746489.1057532,1.58
1764746489.144798,1.57
1764746489.145071,1.66
1764746489.1455748,1.61
1764746489.145847,1.74
1764746489.146218,1.81
1764746489.146471,1.52
1764746489.1467211,1.49
1764746489.146962,1.55
1764746489.147203,1.46
1764746489.1474571,1.55
1764746489.147712,1.49
1764746489.147968,1.42
1764746489.1482098,1.67
1764746489.148451,1.76
1764746489.152906,1.8
1764746489.1593091,2.02
1764746489.165698,2.37
1764746489.1720588,1.92
1764746489.177914,1.52
1764746489.184126,1.58
1764746489.190452,1.53
1764746489.196564,1.42
1764746489.20283,1.41
1764746489.209163,1.28
1764746489.215551,1.11
1764746489.221624,1.36
1764746489.227882,1.66
1764746489.234102,1.88
1764746489.2404082,2.17
1764746489.246596,2.35
1764746489.252886,2.39
1764746489.2591648,2.36
1764746489.2655182,2.51
1764746489.2715762,2.66
1764746489.277758,2.39
1764746489.284284,2.27
1764746489.29057,2.42
1764746489.296662,2.09
1764746489.302797,1.7
1764746489.3091211,1.53
1764746489.315326,1.46
1764746489.321644,1.64
1764746489.327894,1.4
1764746489.33417,1.18
1764746489.340339,1.3
1764746489.3465831,1.14
1764746489.352851,1.1
1764746489.359006,1.05
1764746489.365362,0.91
1764746489.371547,0.98
1764746489.377815,1.03
1764746489.384367,1.38
1764746489.390433,2.41
1764746489.396537,2.84
1764746489.403003,2.66
1764746489.409025,1.85
1764746489.4153569,0.8
1764746489.421459,1.09
1764746489.4277818,1.47
1764746489.434572,1.55
1764746489.440174,1.64
1764746489.4465249,1.68
1764746489.45275,1.72
1764746489.458948,1.76
1764746489.4652128,1.63
1764746489.4714298,1.44
1764746489.477677,1.51
1764746489.484076,1.7
1764746489.490178,1.97
1764746489.4965918,2.05
1764746489.50268,2.05
1764746489.508932,2.01
1764746489.5151942,2.01
1764746489.521504,2.12
1764746489.5277271,2.26
1764746489.5341802,2.36
1764746489.540326,2.35
1764746489.546591,2.25
1764746489.5528388,2.31
1764746489.5589828,2.31
1764746489.565291,2.24
1764746489.571459,2.17
1764746489.5776691,1.98
1764746489.5841012,1.96
1764746489.590198,2.07
1764746489.5964968,1.84
1764746489.602686,1.63
1764746489.608982,1.55
1764746489.615212,1.55
1764746489.621387,1.58
1764746489.627678,1.6
1764746489.634198,1.47
1764746489.640233,1.51
1764746489.646514,1.43
1764746489.652839,1.41
1764746489.658868,1.38
1764746489.66515,1.16
1764746489.671442,1.33
1764746489.677633,1.38
1764746489.684116,1.08
1764746489.690094,1.18
1764746489.6964202,1.33
1764746489.702706,1.25
1764746489.708865,1.37
1764746489.7153769,1.4
1764746489.721428,1.59
1764746489.7276611,1.68
1764746489.734082,1.7
1764746489.7401652,1.75
1764746489.746512,1.99
1764746489.752696,2.25
1764746489.758999,2.26
1764746489.765437,2.07
1764746489.7713752,2.03
1764746489.7776692,2.17
1764746489.783913,2.33
1764746489.790308,1.76
1764746489.796461,1.11
1764746489.802579,1.15
1764746489.808867,1.11
1764746489.815087,0.89
1764746489.821559,1.09
1764746489.827625,1.09
1764746489.834597,1.05
1764746489.840265,1.2
1764746489.846425,1.33
1764746489.852646,1.68
1764746489.859128,1.71
1764746489.865196,1.61
1764746489.8714612,2.11
1764746489.877643,2.86
1764746489.884181,3.16
1764746489.8901749,3.16
1764746489.896369,3.03
1764746489.90259,1.68
1764746489.90885,1.22
1764746489.915456,1.71
1764746489.921373,1.85
1764746489.927663,1.61
1764746489.933998,1.61
1764746489.940175,1.6
1764746489.946451,1.44
1764746489.952569,1.41
1764746489.958793,1.59
1764746489.96518,1.58
1764746489.971408,1.57
1764746489.9776351,1.55
1764746489.9839208,1.51
1764746489.990227,1.52
1764746489.996477,1.58
1764746490.00276,1.8
1764746490.008807,1.92
1764746490.0150871,1.82
1764746490.021309,1.83
1764746490.027585,1.83
1764746490.0342112,1.82
1764746490.040123,1.94
1764746490.046319,1.82
1764746490.052608,1.7
1764746490.058783,1.64
1764746490.065138,1.49
1764746490.07153,1.61
1764746490.0775611,1.64
1764746490.084249,1.43
1764746490.090275,1.32
1764746490.096319,1.11
1764746490.102591,1.17
1764746490.108955,1.65
1764746490.115144,1.87
1764746490.121421,1.77
1764746490.127649,1.3
1764746490.134162,1.14
1764746490.140092,1.39
1764746490.146406,1.54
1764746490.152746,1.53
1764746490.158802,1.52
1764746490.165148,1.51
1764746490.1714509,1.52
1764746490.1775308,1.46
1764746490.184014,1.43
1764746490.1901598,1.28
1764746490.196386,1.12
1764746490.202602,1.16
1764746490.208878,1.38
1764746490.215326,1.56
1764746490.22139,1.67
1764746490.2275982,1.7
1764746490.233946,1.56
1764746490.240003,1.63
1764746490.246434,1.51
1764746490.252597,1.41
1764746490.258794,1.46
1764746490.265067,1.34
1764746490.2715251,1.18
1764746490.277636,0.87
1764746490.283925,0.87
1764746490.29014,1.04
1764746490.296312,0.93
1764746490.30251,0.74
1764746490.3087502,0.71
1764746490.31506,0.8
1764746490.321325,1.0
1764746490.3274949,1.15
1764746490.3337972,1.07
1764746490.3401191,1.03
1764746490.346228,1.15
1764746490.3525949,1.41
1764746490.358729,1.93
1764746490.365077,2.68
1764746490.371246,2.85
1764746490.377551,2.41
1764746490.3838122,1.0
1764746490.3900852,0.3
1764746490.396401,0.8
1764746490.402594,1.01
1764746490.4088168,0.46
1764746490.415255,0.22
1764746490.421398,0.39
1764746490.427511,0.31
1764746490.433857,0.42
1764746490.440148,0.66
1764746490.44638,0.77
1764746490.452487,0.73
1764746490.458805,0.69
1764746490.46507,0.86
1764746490.471209,0.97
1764746490.477439,1.04
1764746490.483859,1.16
1764746490.4900212,1.27
1764746490.496318,1.3
1764746490.502499,1.4
1764746490.508772,1.47
1764746490.514942,1.43
1764746490.521274,1.33
1764746490.527431,1.32
1764746490.533752,1.38
1764746490.540009,1.47
1764746490.5462852,1.57
1764746490.552503,1.56
1764746490.558772,1.38
1764746490.565042,1.25
1764746490.571261,1.17
1764746490.577442,1.1
1764746490.583864,0.96
1764746490.5900218,1.05
1764746490.596287,1.12
1764746490.602468,1.11
1764746490.6086972,1.17
1764746490.614995,1.26
1764746490.621289,1.35
1764746490.6275258,1.38
1764746490.633793,1.5
1764746490.639998,1.39
1764746490.646483,1.28
1764746490.65271,1.39
1764746490.658785,1.49
1764746490.665081,1.48
1764746490.671285,1.46
1764746490.677439,1.34
1764746490.6837308,1.18
1764746490.690057,1.21
1764746490.696239,1.3
1764746490.702507,1.38
1764746490.7088928,1.3
1764746490.715007,1.22
1764746490.7213252,1.42
1764746490.727388,1.48
1764746490.733812,1.36
1764746490.772149,1.56
1764746490.782185,1.5
1764746490.782364,1.3
1764746490.808403,1.2
1764746490.8165498,1.16
1764746490.8169768,1.23
1764746490.81736,1.12
1764746490.8175292,0.97
1764746490.817751,1.11
1764746490.818051,1.1
1764746490.8183758,1.0
1764746490.818621,0.96
1764746490.8187609,0.88
1764746490.8212988,1.0
1764746490.827515,1.2
1764746490.835784,1.16
1764746490.84109,1.26
1764746490.846171,1.95
1764746490.853212,2.52
1764746490.8587189,2.52
1764746490.86928,1.92
1764746490.8711731,0.76
1764746490.877433,0.57
1764746490.884112,1.0
1764746490.890115,0.94
1764746490.896232,0.96
1764746490.90247,1.09
1764746490.908747,1.13
1764746490.915008,1.08
1764746490.921225,1.24
1764746490.927476,1.42
1764746490.933708,1.5
1764746490.939884,1.57
1764746490.946411,1.64
1764746490.952424,1.74
1764746490.958706,1.78
1764746490.964852,1.59
1764746490.9711,1.57
1764746490.977437,1.55
1764746490.9837189,1.46
1764746490.9898791,1.54
1764746490.996203,1.53
1764746491.002362,0.76
1764746491.0086322,0.6
1764746491.014868,0.82
1764746491.0211682,0.9
1764746491.027321,1.25
1764746491.033684,1.22
1764746491.039881,1.09
1764746491.046056,1.37
1764746491.052355,1.59
1764746491.058584,1.74
1764746491.064843,2.01
1764746491.0711849,2.22
1764746491.077336,2.43
1764746491.0836768,2.63
1764746491.089844,2.78
1764746491.096121,3.02
1764746491.1022851,3.03
1764746491.108587,2.77
1764746491.11484,2.29
1764746491.1212091,2.04
1764746491.127365,2.18
1764746491.133594,1.99
1764746491.139783,1.67
1764746491.146106,1.62
1764746491.152361,1.65
1764746491.1586308,1.69
1764746491.164893,1.55
1764746491.171156,1.43
1764746491.1773288,1.51
1764746491.183594,1.35
1764746491.1898172,1.33
1764746491.196267,1.41
1764746491.202343,1.46
1764746491.208624,1.68
1764746491.214899,1.83
1764746491.221111,1.85
1764746491.227435,1.99
1764746491.2342029,2.1
1764746491.239888,2.08
1764746491.2461922,1.91
1764746491.252505,1.91
1764746491.25871,2.02
1764746491.264883,1.87
1764746491.2710762,1.74
1764746491.2773728,1.82
1764746491.283686,1.76
1764746491.289809,1.64
1764746491.296295,1.52
1764746491.302446,1.64
1764746491.308625,1.78
1764746491.314799,1.3
1764746491.3210812,1.22
1764746491.327467,1.63
1764746491.333575,2.45
1764746491.339827,3.14
1764746491.346276,2.87
1764746491.352326,2.23
1764746491.358617,1.39
1764746491.3648798,1.17
1764746491.3711371,1.41
1764746491.377316,1.45
1764746491.383646,1.45
1764746491.3898828,1.52
1764746491.396134,1.36
1764746491.4024372,1.25
1764746491.408586,1.45
1764746491.414839,1.52
1764746491.421088,1.52
1764746491.4273238,1.57
1764746491.433721,1.56
1764746491.4398851,1.54
1764746491.446205,1.44
1764746491.4523609,1.4
1764746491.458553,1.32
1764746491.464917,1.23
1764746491.471073,1.31
1764746491.47731,1.37
1764746491.483923,1.29
1764746491.489841,1.4
1764746491.4959931,1.46
1764746491.5022871,1.51
1764746491.508575,1.78
1764746491.5147562,1.84
1764746491.520988,1.99
1764746491.527203,2.3
1764746491.533661,2.23
1764746491.5397491,2.29
1764746491.545986,2.26
1764746491.552296,2.22
1764746491.55852,2.25
1764746491.564862,2.24
1764746491.5711591,2.09
1764746491.577301,2.13
1764746491.5837388,2.16
1764746491.589781,2.09
1764746491.595979,1.82
1764746491.6023118,1.61
1764746491.60847,1.41
1764746491.614822,0.84
1764746491.621004,0.66
1764746491.6272728,0.55
1764746491.633625,0.37
1764746491.639758,0.41
1764746491.645976,0.63
1764746491.652283,0.83
1764746491.65852,1.02
1764746491.66477,1.03
1764746491.670977,1.3
1764746491.6772878,1.72
1764746491.683494,1.51
1764746491.6897652,1.33
1764746491.69591,1.75
1764746491.70221,1.96
1764746491.708454,1.84
1764746491.714793,1.91
1764746491.720969,2.02
1764746491.727239,1.82
1764746491.733485,1.39
1764746491.7397308,1.33
1764746491.745928,1.39
1764746491.752212,1.34
1764746491.758494,1.47
1764746491.7647412,1.45
1764746491.770956,1.41
1764746491.777262,1.37
1764746491.783511,1.28
1764746491.789714,1.22
1764746491.795965,1.15
1764746491.802172,1.09
1764746491.808427,1.13
1764746491.814649,1.44
1764746491.820941,2.24
1764746491.827193,2.82
1764746491.833517,2.64
1764746491.839766,1.88
1764746491.846004,0.93
1764746491.852202,1.16
1764746491.858469,1.59
1764746491.8647091,1.39
1764746491.870982,1.26
1764746491.877205,1.42
1764746491.8834538,1.66
1764746491.889738,1.56
1764746491.8959382,1.23
1764746491.902154,1.04
1764746491.90845,0.95
1764746491.9146838,0.84
1764746491.920921,1.05
1764746491.927186,1.22
1764746491.933473,1.18
1764746491.939659,1.49
1764746491.945928,1.55
1764746491.952119,1.44
1764746491.958519,1.57
1764746491.964752,1.59
1764746491.971002,1.53
1764746491.97709,1.58
1764746491.983414,1.57
1764746491.989608,1.71
1764746491.995859,1.71
1764746492.002136,1.62
1764746492.008412,1.66
1764746492.014754,1.69
1764746492.02084,1.58
1764746492.027133,1.67
1764746492.033495,1.68
1764746492.039698,1.61
1764746492.045888,1.59
1764746492.0521128,1.63
1764746492.058412,1.5
1764746492.064665,1.25
1764746492.07091,1.17
1764746492.077129,1.12
1764746492.083331,0.98
1764746492.089681,0.9
1764746492.095994,1.04
1764746492.102137,1.09
1764746492.108402,1.17
1764746492.114614,1.32
1764746492.120884,1.53
1764746492.127098,1.66
1764746492.133392,1.72
1764746492.1396742,1.97
1764746492.145849,2.12
1764746492.152073,2.1
1764746492.15842,2.17
1764746492.164625,2.17
1764746492.170881,2.04
1764746492.177145,2.1
1764746492.183448,2.09
1764746492.189656,1.85
1764746492.215765,1.62
1764746492.2159512,1.3
1764746492.2161238,1.27
1764746492.225893,1.02
1764746492.226308,0.71
1764746492.23799,0.96
1764746492.243124,1.11
1764746492.24533,1.17
1764746492.247649,1.35
1764746492.252335,1.51
1764746492.2614772,1.72
1764746492.2662,2.07
1764746492.27081,2.02
1764746492.277216,2.0
1764746492.28395,2.14
1764746492.289632,2.36
1764746492.295821,2.59
1764746492.302294,3.0
1764746492.308426,3.17
1764746492.314702,3.17
1764746492.320928,3.16
1764746492.327281,2.48
1764746492.333697,1.08
1764746492.3396218,1.39
1764746492.3458738,1.82
1764746492.352222,1.63
1764746492.3583791,1.59
1764746492.364802,1.66
1764746492.371011,1.74
1764746492.37737,1.74
1764746492.383439,1.51
1764746492.389745,1.46
1764746492.3958652,1.47
1764746492.402213,1.42
1764746492.408351,1.61
1764746492.414691,1.52
1764746492.420856,1.52
1764746492.42704,1.56
1764746492.4333792,1.64
1764746492.439608,1.77
1764746492.445772,1.7
1764746492.452024,1.79
1764746492.4582798,2.0
1764746492.4646752,1.97
1764746492.4708211,1.9
1764746492.477,1.76
1764746492.4833548,1.75
1764746492.489523,1.74
1764746492.4957912,1.41
1764746492.501996,1.43
1764746492.508306,1.89
1764746492.5146408,2.22
1764746492.520768,2.3
1764746492.5269802,2.16
1764746492.5333571,2.09
