timestamp,ecg_value
1764746552.539413,2.63
1764746552.545281,2.54
1764746552.551475,2.56
1764746552.5579069,2.57
1764746552.5639648,2.42
1764746552.5701902,2.44
1764746552.576362,2.45
1764746552.58271,2.45
1764746552.589036,2.44
1764746552.595241,2.29
1764746552.601472,2.31
1764746552.607733,2.47
1764746552.613981,2.32
1764746552.620186,2.27
1764746552.626461,2.17
1764746552.632849,2.03
1764746552.639022,1.87
1764746552.645225,1.64
1764746552.651564,1.61
1764746552.657727,1.57
1764746552.664035,1.42
1764746552.6701708,1.43
1764746552.676524,1.33
1764746552.682643,1.33
1764746552.689117,1.39
1764746552.69525,1.23
1764746552.701406,1.14
1764746552.707675,1.11
1764746552.714123,1.11
1764746552.720285,1.4
1764746552.726547,2.13
1764746552.732679,2.65
1764746552.73902,2.56
1764746552.745311,1.49
1764746552.751582,0.27
1764746552.757699,0.47
1764746552.7641711,0.82
1764746552.770135,0.69
1764746552.776468,0.56
1764746552.782698,0.58
1764746552.789398,0.59
1764746552.795256,0.47
1764746552.801568,0.53
1764746552.807837,0.59
1764746552.814078,0.49
1764746552.820537,0.55
1764746552.8263931,0.53
1764746552.832692,0.51
1764746552.83926,0.54
1764746552.845133,0.46
1764746552.851444,0.54
1764746552.857619,0.6
1764746552.863895,0.44
1764746552.8702269,0.47
1764746552.876318,0.5
1764746552.882692,0.46
1764746552.889192,0.53
1764746552.89516,0.48
1764746552.901362,0.47
1764746552.90776,0.47
1764746552.9138958,0.44
1764746552.9201658,0.44
1764746552.9263208,0.38
1764746552.9326122,0.3
1764746552.938914,0.37
1764746552.945183,0.34
1764746552.951353,0.31
1764746552.957665,0.31
1764746552.963914,0.22
1764746552.970179,0.22
1764746552.9766028,0.22
1764746552.98262,0.18
1764746552.9894762,0.2
1764746552.995221,0.18
1764746553.0015402,0.16
1764746553.0076532,0.23
1764746553.013928,0.14
1764746553.020159,0.15
1764746553.026336,0.12
1764746553.032647,0.07
1764746553.039166,0.12
1764746553.045036,0.08
1764746553.051307,0.04
1764746553.0575309,0.12
1764746553.063838,0.12
1764746553.070116,0.11
1764746553.07629,0.07
1764746553.082626,0.18
1764746553.089492,0.36
1764746553.095037,0.24
1764746553.1013062,0.22
1764746553.107606,0.48
1764746553.113844,0.5
1764746553.120061,0.41
1764746553.126265,0.4
1764746553.132703,0.46
1764746553.139053,0.31
1764746553.145131,0.12
1764746553.151309,0.14
1764746553.157694,0.22
1764746553.163848,0.21
1764746553.1700869,0.32
1764746553.176496,0.31
1764746553.1826088,0.27
1764746553.188861,0.36
1764746553.19514,0.34
1764746553.201327,0.37
1764746553.207571,0.45
1764746553.2138822,0.39
1764746553.220072,0.61
1764746553.226284,1.38
1764746553.232702,2.09
1764746553.2389472,2.1
1764746553.24514,1.5
1764746553.251297,0.28
1764746553.257601,0.04
1764746553.263869,0.45
1764746553.270109,0.65
1764746553.2764428,0.48
1764746553.282798,0.4
1764746553.28897,0.59
1764746553.295074,0.56
1764746553.301322,0.59
1764746553.307515,0.81
1764746553.313737,0.75
1764746553.320101,0.69
1764746553.326257,0.86
1764746553.33248,0.87
1764746553.33883,0.86
1764746553.345115,0.85
1764746553.3512802,0.9
1764746553.357595,1.06
1764746553.363832,1.15
1764746553.370028,1.12
1764746553.376214,1.06
1764746553.3824582,1.18
1764746553.38878,1.3
1764746553.41012,1.2
1764746553.4435022,1.35
1764746553.443661,1.39
1764746553.443796,1.27
1764746553.475384,1.42
1764746553.4764328,1.5
1764746553.476633,1.46
1764746553.476768,1.52
1764746553.4768798,1.37
1764746553.476992,1.41
1764746553.477128,1.66
1764746553.47748,1.61
1764746553.4775949,1.53
1764746553.477712,1.6
1764746553.482592,1.61
1764746553.4903848,1.58
1764746553.495049,1.51
1764746553.501546,1.59
1764746553.5075588,1.66
1764746553.514029,1.5
1764746553.52474,1.55
1764746553.526316,1.55
1764746553.532626,1.46
1764746553.538932,1.48
1764746553.545185,1.41
1764746553.551198,1.44
1764746553.557564,1.65
1764746553.563788,1.54
1764746553.570102,1.49
1764746553.576297,1.59
1764746553.582586,1.56
1764746553.5891788,1.67
1764746553.5950458,1.77
1764746553.601227,1.79
1764746553.607436,1.93
1764746553.613727,2.0
1764746553.620078,2.14
1764746553.626252,1.98
1764746553.632428,1.93
1764746553.639155,2.08
1764746553.6448991,1.76
1764746553.651247,1.7
1764746553.65748,1.76
1764746553.6636858,1.69
1764746553.670144,1.66
1764746553.676281,1.79
1764746553.682553,1.9
1764746553.689332,1.86
1764746553.695012,1.76
1764746553.701439,1.86
1764746553.707637,1.86
1764746553.71366,1.79
1764746553.7199192,1.87
1764746553.726206,2.11
1764746553.732459,2.95
1764746553.738933,3.16
1764746553.745228,3.16
1764746553.751294,2.91
1764746553.757522,1.24
1764746553.763741,1.07
1764746553.76997,1.9
1764746553.776392,1.8
1764746553.782472,1.52
1764746553.790342,1.65
1764746553.795037,1.56
1764746553.801213,1.72
1764746553.80775,1.87
1764746553.813848,1.7
1764746553.820074,1.72
1764746553.82626,1.73
1764746553.832724,1.56
1764746553.838737,1.81
1764746553.844998,1.66
1764746553.851158,1.72
1764746553.857517,1.81
1764746553.863797,1.69
1764746553.869983,1.68
1764746553.8762062,1.78
1764746553.882603,1.59
1764746553.889529,1.67
1764746553.895197,1.88
1764746553.9013178,1.89
1764746553.907454,2.04
1764746553.913716,2.11
1764746553.9201531,1.98
1764746553.926336,1.9
1764746553.932631,1.96
1764746553.938859,2.0
1764746553.944876,1.74
1764746553.951368,1.75
1764746553.957492,1.89
1764746553.963743,1.78
1764746553.9701009,1.71
1764746553.976246,1.73
1764746553.982541,1.66
1764746553.988777,1.7
1764746553.994994,1.54
1764746554.00123,1.53
1764746554.007564,1.61
1764746554.0136929,1.5
1764746554.019959,1.28
1764746554.026075,1.56
1764746554.0323682,1.52
1764746554.03867,1.4
1764746554.044935,1.39
1764746554.051191,1.31
1764746554.057494,1.3
1764746554.063694,1.52
1764746554.070276,1.49
1764746554.0762,1.29
1764746554.082517,1.16
1764746554.0888152,1.5
1764746554.094953,1.65
1764746554.101203,1.37
1764746554.1073978,1.43
1764746554.1136,1.43
1764746554.11989,1.26
1764746554.126187,1.26
1764746554.1323452,1.19
1764746554.138706,0.97
1764746554.1448488,0.81
1764746554.151065,1.11
1764746554.15739,1.01
1764746554.16364,0.62
1764746554.169965,0.66
1764746554.176116,0.89
1764746554.182376,0.8
1764746554.1897018,0.69
1764746554.194881,0.84
1764746554.201076,0.8
1764746554.207415,0.83
1764746554.21369,0.88
1764746554.220153,0.92
1764746554.22609,1.56
1764746554.232304,2.36
1764746554.238806,2.44
1764746554.244881,1.95
1764746554.2510378,0.61
1764746554.25729,0.02
1764746554.263606,0.38
1764746554.271538,0.7
1764746554.276063,0.69
1764746554.282377,0.51
1764746554.2889369,0.53
1764746554.295014,0.59
1764746554.3011048,0.66
1764746554.307364,0.84
1764746554.313677,0.71
1764746554.319941,0.6
1764746554.326184,0.77
1764746554.332375,0.91
1764746554.339582,0.75
1764746554.345042,0.82
1764746554.351266,0.89
1764746554.357409,0.94
1764746554.3635972,1.03
1764746554.369941,0.97
1764746554.376107,1.05
1764746554.382377,1.09
1764746554.388829,1.2
1764746554.39501,1.33
1764746554.401118,1.38
1764746554.4073632,1.36
1764746554.413574,1.37
1764746554.419919,1.44
1764746554.4260638,1.56
1764746554.432469,1.53
1764746554.4386392,1.51
1764746554.444822,1.54
1764746554.450986,1.54
1764746554.457526,1.67
1764746554.463545,1.57
1764746554.469862,1.56
1764746554.4761448,1.63
1764746554.482352,1.72
1764746554.488555,1.74
1764746554.4947572,1.75
1764746554.5012858,1.81
1764746554.507263,1.91
1764746554.513549,1.97
1764746554.5197902,2.04
1764746554.526027,2.14
1764746554.532256,2.03
1764746554.5398662,2.12
1764746554.544855,2.14
1764746554.5510988,2.18
1764746554.5575302,2.26
1764746554.563745,2.18
1764746554.569833,2.3
1764746554.576097,2.4
1764746554.582335,2.31
1764746554.5893838,2.44
1764746554.5948532,2.53
1764746554.601129,2.56
1764746554.607235,2.65
1764746554.613842,2.61
1764746554.6200051,2.62
1764746554.626009,2.59
1764746554.632413,2.36
1764746554.6389172,2.3
1764746554.64482,2.3
1764746554.650972,2.27
1764746554.657363,2.32
1764746554.6635242,2.27
1764746554.669908,2.3
1764746554.675974,2.28
1764746554.6823092,2.41
1764746554.689054,2.58
1764746554.694766,2.4
1764746554.700951,2.38
1764746554.707237,2.61
1764746554.71346,2.58
1764746554.719689,3.11
1764746554.726027,3.17
1764746554.732212,3.17
1764746554.7386189,3.17
1764746554.744718,3.17
1764746554.751009,2.87
1764746554.75751,2.04
1764746554.763634,2.09
1764746554.76979,2.6
1764746554.775989,2.47
1764746554.7823098,2.19
1764746554.788642,2.39
1764746554.794846,2.44
1764746554.801118,2.3
1764746554.807349,2.32
1764746554.8134909,2.4
1764746554.819743,2.53
1764746554.826016,2.4
1764746554.832287,2.23
1764746554.838837,2.49
1764746554.844897,2.49
1764746554.850951,2.36
1764746554.857268,2.46
1764746554.863463,2.37
1764746554.869766,2.44
1764746554.875985,2.54
1764746554.882177,2.45
1764746554.888855,2.56
1764746554.894732,2.55
1764746554.9009652,2.51
1764746554.9072409,2.6
1764746554.913412,2.4
1764746554.9196742,2.47
1764746554.925892,2.51
1764746554.9321878,2.3
1764746554.938508,2.39
1764746554.944649,2.32
1764746554.950904,2.19
1764746554.957158,2.2
1764746554.963426,2.09
1764746554.9697542,2.24
1764746554.975895,2.2
1764746554.982222,2.03
1764746554.988448,2.13
1764746554.994616,2.16
1764746555.0009348,2.16
1764746555.007191,2.16
1764746555.1358788,2.02
1764746555.140958,2.11
1764746555.141251,2.07
1764746555.141511,1.95
1764746555.1417758,2.07
1764746555.142027,1.96
1764746555.142276,1.9
1764746555.144481,2.02
1764746555.147893,1.9
1764746555.1483462,1.97
1764746555.149726,2.02
1764746555.1501892,1.91
1764746555.150448,2.0
1764746555.150701,2.05
1764746555.150978,2.06
1764746555.151299,2.06
1764746555.1517131,1.86
1764746555.152415,1.9
1764746555.152818,1.8
1764746555.153122,1.54
1764746555.153495,1.6
1764746555.154111,1.55
1764746555.154565,1.46
1764746555.157155,1.48
1764746555.1637151,1.47
1764746555.1783612,1.59
1764746555.1786492,1.54
1764746555.1821198,1.42
1764746555.188673,1.52
1764746555.194682,1.58
1764746555.200914,1.5
1764746555.207152,1.58
1764746555.213415,2.06
1764746555.219682,3.08
1764746555.2258902,3.15
1764746555.232214,2.83
1764746555.23851,1.4
1764746555.244607,0.64
1764746555.25086,1.28
1764746555.257062,1.55
1764746555.26333,1.23
1764746555.269595,1.22
1764746555.275847,1.32
1764746555.282149,1.27
1764746555.288386,1.37
1764746555.294518,1.3
1764746555.300855,1.33
1764746555.307103,1.43
1764746555.313343,1.3
1764746555.319795,1.37
1764746555.325804,1.37
1764746555.332076,1.3
1764746555.338197,1.41
1764746555.3445802,1.35
1764746555.350915,1.3
1764746555.357035,1.37
1764746555.363399,1.33
1764746555.369765,1.36
1764746555.375836,1.37
1764746555.3820522,1.3
1764746555.388362,1.43
1764746555.394636,1.44
1764746555.400924,1.36
1764746555.407061,1.39
1764746555.413383,1.33
1764746555.419689,1.35
1764746555.4258869,1.33
1764746555.4320798,1.2
1764746555.438354,1.31
1764746555.444552,1.22
1764746555.45084,1.14
1764746555.457004,1.19
1764746555.4632928,1.17
1764746555.4696891,1.19
1764746555.4758668,1.15
1764746555.482089,1.08
1764746555.48825,1.28
1764746555.4946282,1.19
1764746555.500866,1.09
1764746555.5070589,1.19
1764746555.5132642,1.21
1764746555.519576,1.19
1764746555.525887,1.09
1764746555.532146,1.09
1764746555.53838,1.29
1764746555.5445929,1.2
1764746555.550911,1.11
1764746555.5570712,1.24
1764746555.563306,1.25
1764746555.569709,1.3
1764746555.575844,1.32
1764746555.582132,1.28
1764746555.588436,1.49
1764746555.594502,1.47
1764746555.600954,1.35
1764746555.6070662,1.4
1764746555.6133811,1.37
1764746555.6198,1.24
1764746555.625851,1.14
1764746555.632072,1.05
1764746555.638314,1.08
1764746555.644691,1.04
1764746555.65095,0.98
1764746555.6570811,1.12
1764746555.663253,1.07
1764746555.669596,1.05
1764746555.675751,1.08
1764746555.6820989,1.0
1764746555.6883252,0.98
1764746555.694497,0.93
1764746555.701065,1.05
1764746555.7070642,1.71
1764746555.713256,2.49
1764746555.719723,2.61
1764746555.725777,2.15
1764746555.732125,0.78
1764746555.738239,0.34
1764746555.74446,0.98
1764746555.750941,1.08
1764746555.757091,0.89
1764746555.763208,0.91
1764746555.769579,1.1
1764746555.775724,1.09
1764746555.782042,0.97
1764746555.788275,1.12
1764746555.7945569,1.09
1764746555.801567,1.11
1764746555.80704,1.21
1764746555.813215,1.11
1764746555.819793,1.22
1764746555.825828,1.31
1764746555.832026,1.23
1764746555.838219,1.31
1764746555.844429,1.41
1764746555.85108,1.39
1764746555.856929,1.46
1764746555.863193,1.43
1764746555.869576,1.5
1764746555.875784,1.54
1764746555.882002,1.51
1764746555.8882902,1.54
1764746555.894599,1.6
1764746555.900821,1.61
1764746555.906993,1.61
1764746555.9132411,1.53
1764746555.919818,1.61
1764746555.9257548,1.64
1764746555.932003,1.55
1764746555.9382489,1.57
1764746555.944466,1.52
1764746555.950701,1.59
1764746555.956948,1.73
1764746555.963167,1.62
1764746555.9695628,1.57
1764746555.975657,1.68
1764746555.981941,1.6
1764746555.9882162,1.6
1764746555.994379,1.7
1764746556.0006888,1.61
1764746556.006913,1.6
1764746556.013265,1.61
1764746556.020052,1.79
1764746556.02565,1.82
1764746556.0320032,1.71
1764746556.0382369,1.93
1764746556.044392,1.93
1764746556.050752,1.89
1764746556.056911,2.14
1764746556.063169,2.12
1764746556.069619,2.19
1764746556.0756009,2.27
1764746556.082043,2.33
1764746556.088245,2.55
1764746556.094568,2.39
1764746556.100801,2.36
1764746556.1070411,2.56
1764746556.113176,2.33
1764746556.119803,2.2
1764746556.125663,2.42
1764746556.131994,2.4
1764746556.138216,2.31
1764746556.14441,2.32
1764746556.1508749,2.39
1764746556.157003,2.54
1764746556.1633248,2.46
1764746556.169612,2.51
1764746556.175742,2.51
1764746556.181994,2.45
1764746556.188434,2.67
1764746556.19446,2.76
1764746556.2006788,3.16
1764746556.207034,3.17
1764746556.213112,3.17
1764746556.21949,3.18
1764746556.225672,3.17
1764746556.231981,3.17
1764746556.238199,3.14
1764746556.244408,2.74
1764746556.250722,2.65
1764746556.256868,3.03
1764746556.263124,2.98
1764746556.2694569,2.92
1764746556.275667,2.93
1764746556.282067,2.88
1764746556.288268,3.04
1764746556.294324,3.14
1764746556.300617,3.1
1764746556.306914,3.13
1764746556.3131678,3.13
1764746556.319635,3.16
1764746556.3257082,3.16
1764746556.331997,3.16
1764746556.338292,3.17
1764746556.344442,3.17
1764746556.350709,3.17
1764746556.356844,3.17
1764746556.363216,3.17
1764746556.369548,3.17
1764746556.375637,3.17
1764746556.381971,3.18
1764746556.388099,3.18
1764746556.3943338,3.17
1764746556.4007,3.17
1764746556.406867,3.18
1764746556.413085,3.18
1764746556.41947,3.18
1764746556.4256582,3.18
1764746556.431873,3.18
1764746556.438095,3.18
1764746556.444363,3.18
1764746556.4507189,3.18
1764746556.4567978,3.18
1764746556.4630852,3.18
1764746556.469433,3.18
1764746556.475586,3.18
1764746556.4818711,3.18
1764746556.4881,3.18
1764746556.494369,3.17
1764746556.500672,3.17
1764746556.50846,3.18
1764746556.514097,3.18
1764746556.530717,3.18
1764746556.5640378,3.17
1764746556.564851,3.17
1764746556.564963,3.17
1764746556.56881,3.17
1764746556.569354,3.17
1764746556.569582,3.17
1764746556.569688,3.17
1764746556.569846,3.17
1764746556.577596,3.17
1764746556.59569,3.17
1764746556.5958788,3.17
1764746556.595996,3.17
1764746556.600739,3.17
1764746556.606922,3.17
1764746556.615551,3.16
1764746556.6219258,3.15
1764746556.62564,2.94
1764746556.6324391,2.62
1764746556.638536,2.71
1764746556.6443431,2.68
1764746556.6507242,2.53
1764746556.657006,2.61
1764746556.6630862,2.61
1764746556.6694348,2.37
1764746556.675809,2.34
1764746556.681823,2.34
1764746556.688185,2.67
1764746556.694295,3.17
1764746556.70063,3.17
1764746556.70689,3.17
1764746556.713076,3.11
1764746556.7195551,1.69
1764746556.725537,1.12
1764746556.731791,1.74
1764746556.738088,1.7
1764746556.744264,1.37
1764746556.75061,1.45
1764746556.75683,1.44
1764746556.763044,1.34
1764746556.7694552,1.17
1764746556.7755651,1.12
1764746556.781832,1.22
1764746556.788126,1.23
1764746556.794282,1.03
1764746556.800596,0.87
1764746556.806886,0.85
1764746556.812982,0.98
1764746556.819571,0.86
1764746556.8255858,0.55
1764746556.831797,0.49
1764746556.838141,0.61
1764746556.844295,0.53
1764746556.8506508,0.4
1764746556.8569138,0.35
1764746556.863094,0.33
1764746556.869796,0.19
1764746556.875506,0.19
1764746556.881862,0.23
1764746556.888128,0.08
1764746556.894256,0.0
1764746556.900537,0.0
1764746556.9068558,0.0
1764746556.912968,0.0
1764746556.919625,0.0
1764746556.9255412,0.0
1764746556.931957,0.0
1764746556.938157,0.0
1764746556.944344,0.0
1764746556.950518,0.0
1764746556.9568262,0.0
1764746556.963082,0.0
1764746556.969392,0.0
1764746556.975526,0.0
1764746556.981764,0.0
1764746556.987948,0.0
1764746556.994303,0.0
1764746557.000694,0.0
1764746557.00678,0.0
1764746557.013144,0.0
1764746557.019319,0.0
1764746557.025423,0.0
1764746557.031703,0.0
1764746557.038035,0.0
1764746557.044201,0.0
1764746557.050536,0.0
1764746557.056982,0.0
1764746557.063141,0.0
1764746557.069294,0.0
1764746557.075501,0.0
1764746557.0817668,0.0
1764746557.0880818,0.0
1764746557.094275,0.0
1764746557.100519,0.0
1764746557.106706,0.0
1764746557.112912,0.0
1764746557.119377,0.0
1764746557.125427,0.0
1764746557.131707,0.0
1764746557.137889,0.0
1764746557.144165,0.0
1764746557.1508,0.0
1764746557.156814,0.0
1764746557.1629891,0.0
1764746557.169308,0.0
1764746557.175479,0.0
1764746557.181767,0.0
1764746557.1880388,0.0
1764746557.194182,0.0
1764746557.20047,0.0
1764746557.2067578,0.0
1764746557.212912,0.0
1764746557.219244,0.0
1764746557.225557,0.0
1764746557.2317371,0.0
1764746557.237922,0.0
1764746557.244266,0.0
1764746557.25051,0.0
1764746557.256628,0.0
1764746557.262954,0.0
1764746557.2693162,0.0
1764746557.2754612,0.0
1764746557.2817469,0.0
1764746557.287994,0.0
1764746557.294097,0.0
1764746557.300384,0.0
1764746557.3066869,0.0
1764746557.31302,0.0
1764746557.319199,0.0
1764746557.3254411,0.0
1764746557.331778,0.0
1764746557.33793,0.0
1764746557.3442209,0.19
1764746557.350485,0.37
1764746557.3566878,0.43
1764746557.3630311,0.38
1764746557.369643,0.43
1764746557.375499,0.56
1764746557.3816938,0.49
1764746557.3881469,0.49
1764746557.394165,0.45
1764746557.400403,0.4
1764746557.40675,0.52
1764746557.412957,0.42
1764746557.419329,0.38
1764746557.425438,0.45
1764746557.431793,0.38
1764746557.437939,0.43
1764746557.4442308,0.45
1764746557.4504588,0.45
1764746557.456647,0.66
1764746557.462838,0.6
1764746557.469238,0.52
1764746557.475425,0.71
1764746557.4817548,0.67
1764746557.488172,0.75
1764746557.494164,0.77
1764746557.5003788,0.65
1764746557.506727,0.77
1764746557.513031,0.73
1764746557.519179,0.82
1764746557.525407,0.94
1764746557.531589,0.86
1764746557.537938,0.91
1764746557.544277,1.07
1764746557.550446,1.14
1764746557.556742,1.13
1764746557.56283,0.96
1764746557.569231,1.09
1764746557.575378,1.13
1764746557.581553,0.78
1764746557.587887,0.81
1764746557.594136,0.9
1764746557.600517,0.75
1764746557.606623,0.83
1764746557.613029,0.86
1764746557.619122,0.89
1764746557.6254132,0.96
1764746557.631619,0.91
1764746557.6379,1.06
1764746557.644074,1.01
1764746557.650396,0.93
1764746557.656598,1.2
1764746557.66286,1.53
1764746557.669458,2.39
1764746557.675471,3.05
1764746557.681621,2.81
1764746557.6879191,1.76
1764746557.694342,0.62
1764746557.7005382,0.89
1764746557.706856,1.54
1764746557.7129369,1.27
1764746557.719401,1.11
1764746557.725387,1.27
1764746557.731624,1.21
1764746557.737807,1.22
1764746557.744384,1.3
1764746557.7505898,1.27
1764746557.75658,1.3
1764746557.762812,1.22
1764746557.769077,1.26
1764746557.775363,1.29
1764746557.781557,1.22
1764746557.787761,1.41
1764746557.79405,1.4
1764746557.800344,1.28
1764746557.806572,1.43
1764746557.8129249,1.4
1764746557.819076,1.41
1764746557.8253062,1.55
1764746557.831598,1.42
1764746557.837986,1.53
1764746557.844091,1.68
1764746557.850367,1.64
1764746557.8565571,1.66
1764746557.862798,1.58
1764746557.8691368,1.59
1764746557.875268,1.69
1764746557.881508,1.59
1764746557.887776,1.64
1764746557.894041,1.68
1764746557.900403,1.63
1764746557.906514,1.7
1764746557.912779,1.64
1764746557.919156,1.66
1764746557.925236,1.79
1764746557.931558,1.7
1764746557.937769,1.8
1764746557.944035,1.83
1764746557.950382,1.76
1764746557.956497,1.84
1764746557.963295,1.78
1764746557.9979992,1.81
1764746558.015146,1.89
1764746558.015303,1.77
1764746558.017416,1.8
1764746558.0175302,1.73
1764746558.017587,1.67
1764746558.01764,1.81
1764746558.017693,1.81
1764746558.020791,1.8
1764746558.028809,1.86
1764746558.033889,1.85
1764746558.0378492,2.04
1764746558.045357,2.08
1764746558.050401,1.89
1764746558.056583,1.95
1764746558.062969,1.92
1764746558.069878,1.77
1764746558.07532,1.73
1764746558.081523,1.61
1764746558.087818,1.63
1764746558.0940769,1.61
1764746558.100238,1.53
1764746558.106542,1.6
1764746558.112832,1.55
1764746558.119112,1.56
1764746558.125394,1.61
1764746558.1315851,1.54
1764746558.137707,1.55
1764746558.143975,1.55
1764746558.150207,1.61
1764746558.1564438,2.45
1764746558.162754,3.15
1764746558.168968,3.14
1764746558.1751978,2.74
1764746558.1814458,1.24
1764746558.187721,0.93
1764746558.193884,1.55
1764746558.2002282,1.56
1764746558.20646,1.49
1764746558.212706,1.46
1764746558.219001,1.48
1764746558.225146,1.52
1764746558.2314298,1.5
1764746558.2376618,1.55
1764746558.243907,1.57
1764746558.250165,1.55
1764746558.2564218,1.66
1764746558.262779,1.62
1764746558.269065,1.61
1764746558.275181,1.68
1764746558.281457,1.37
1764746558.2876558,1.11
1764746558.293944,1.24
1764746558.3002,1.3
1764746558.306423,1.33
1764746558.312721,1.25
1764746558.3190012,1.3
1764746558.325152,1.47
1764746558.331496,1.43
1764746558.337606,1.44
1764746558.343903,1.51
1764746558.3502789,1.5
1764746558.356364,1.55
1764746558.3627892,1.51
1764746558.368958,1.46
1764746558.375199,1.52
1764746558.381519,1.47
1764746558.387657,1.55
1764746558.393963,1.54
1764746558.400149,1.43
1764746558.406392,1.51
1764746558.412659,1.55
1764746558.418954,1.55
1764746558.425184,1.53
1764746558.43149,1.5
1764746558.4376268,1.55
1764746558.4438558,1.56
1764746558.450179,1.54
1764746558.456395,1.59
1764746558.462671,1.54
1764746558.468928,1.53
1764746558.4751492,1.63
1764746558.48135,1.6
1764746558.48764,1.56
1764746558.493941,1.55
1764746558.5002382,1.59
1764746558.5064352,1.72
1764746558.512634,1.74
1764746558.518916,1.73
1764746558.525172,1.83
1764746558.531389,1.9
1764746558.537638,1.96
1764746558.543894,1.93
1764746558.5500932,1.87
1764746558.556351,1.92
1764746558.5626938,1.75
1764746558.56894,1.57
1764746558.575118,1.64
1764746558.581322,1.66
1764746558.587618,1.69
1764746558.5939012,1.7
1764746558.6001122,1.65
1764746558.606453,1.75
1764746558.612627,1.76
1764746558.618924,1.77
1764746558.625192,1.84
1764746558.631378,1.75
1764746558.637633,1.81
1764746558.64382,1.99
1764746558.650156,2.6
1764746558.656578,3.17
1764746558.662708,3.17
1764746558.668936,3.15
1764746558.67507,2.15
1764746558.681441,1.14
1764746558.687626,1.75
1764746558.693835,2.19
1764746558.7001789,1.89
1764746558.706353,1.87
1764746558.7126908,1.99
1764746558.718859,2.03
1764746558.725194,2.07
1764746558.731338,2.0
1764746558.737601,2.11
1764746558.7438452,2.21
1764746558.7501,2.18
1764746558.756379,2.23
1764746558.762606,2.22
1764746558.768863,2.26
1764746558.775328,2.37
1764746558.781355,2.28
1764746558.787722,2.37
1764746558.7938612,2.42
1764746558.8001049,2.32
1764746558.8062952,2.46
1764746558.812633,2.47
1764746558.818922,2.43
1764746558.825127,2.6
1764746558.8313842,2.53
1764746558.837578,2.58
1764746558.84383,2.6
1764746558.850071,2.47
1764746558.856294,2.65
1764746558.862677,2.68
1764746558.868908,2.55
1764746558.875415,2.6
1764746558.881365,2.53
1764746558.887817,2.58
1764746558.893827,2.58
1764746558.90011,2.46
1764746558.906368,2.56
1764746558.912761,2.42
1764746558.918863,2.35
1764746558.925068,2.45
1764746558.931419,2.26
1764746558.9375842,2.5
1764746558.9438112,2.56
1764746558.95006,2.36
1764746558.956264,2.5
1764746558.9625971,2.45
1764746558.968815,2.42
1764746558.9750872,2.52
1764746558.9812748,2.37
1764746558.987506,2.46
1764746558.993812,2.63
1764746559.000514,2.53
1764746559.00636,2.76
1764746559.012516,2.76
1764746559.0187771,2.68
1764746559.025053,2.96
1764746559.0312462,3.01
1764746559.0375,2.84
1764746559.043805,2.81
1764746559.0503511,2.81
1764746559.056264,2.7
1764746559.062633,2.41
1764746559.068928,2.41
1764746559.075006,2.54
1764746559.081237,2.31
1764746559.087559,2.37
1764746559.093791,2.43
1764746559.100443,2.31
1764746559.106218,2.38
1764746559.112541,2.35
1764746559.118824,2.29
1764746559.125045,2.2
1764746559.131304,2.17
1764746559.1375518,2.36
1764746559.143826,2.84
1764746559.150083,3.17
1764746559.156289,3.17
1764746559.162606,3.17
1764746559.1689012,2.72
1764746559.175084,1.53
1764746559.181355,1.76
1764746559.1875908,2.4
1764746559.193716,2.34
1764746559.200032,2.13
1764746559.206231,2.34
1764746559.212639,2.5
1764746559.218782,2.81
1764746559.22501,3.04
1764746559.231244,2.96
1764746559.237489,3.14
1764746559.2436988,3.15
1764746559.250152,3.16
1764746559.2562308,3.16
1764746559.262605,3.16
1764746559.268765,3.16
1764746559.275062,3.16
1764746559.281295,3.16
1764746559.287585,3.16
1764746559.2938502,3.15
1764746559.300111,3.15
1764746559.3062131,3.16
1764746559.312591,3.15
1764746559.318801,3.15
1764746559.32503,3.15
1764746559.3312871,3.16
1764746559.337515,3.16
1764746559.343745,3.16
1764746559.350097,3.16
1764746559.356363,3.17
1764746559.362657,3.17
1764746559.368769,3.17
1764746559.374908,3.17
1764746559.381218,3.17
1764746559.3874822,3.17
1764746559.393628,3.17
1764746559.400011,3.17
1764746559.406267,3.17
1764746559.412388,3.16
1764746559.418863,3.16
1764746559.425,3.16
1764746559.431215,3.11
1764746559.43739,2.97
1764746559.449759,2.99
1764746559.464288,2.83
1764746559.4844391,2.95
1764746559.484909,2.94
1764746559.485374,2.61
1764746559.485611,2.94
1764746559.48575,3.02
1764746559.4888,2.84
1764746559.5005162,2.92
1764746559.509686,2.87
1764746559.524415,2.99
1764746559.524811,2.84
1764746559.5250292,2.97
1764746559.5252302,3.12
1764746559.534152,2.78
1764746559.546054,2.93
1764746559.546252,3.02
1764746559.550816,2.52
1764746559.561824,2.55
1764746559.5632892,2.61
1764746559.568756,2.39
1764746559.575082,2.45
1764746559.585931,2.28
1764746559.588925,2.27
1764746559.5937212,2.38
1764746559.59993,2.26
1764746559.606215,2.28
1764746559.612374,2.18
1764746559.61887,1.92
1764746559.624952,2.05
1764746559.631262,2.4
1764746559.637543,3.16
1764746559.643727,3.17
1764746559.650263,3.16
1764746559.65612,2.73
1764746559.66238,1.27
1764746559.6686132,1.22
1764746559.674879,1.76
1764746559.681171,1.55
1764746559.68737,1.59
1764746559.693624,1.69
1764746559.6999722,1.74
1764746559.7061398,1.92
1764746559.712372,1.69
1764746559.718677,1.51
1764746559.724895,1.83
1764746559.7311811,1.65
1764746559.737303,1.53
1764746559.74365,1.58
1764746559.749983,1.59
1764746559.75625,1.63
1764746559.7623591,1.47
1764746559.7686322,1.51
1764746559.774889,1.63
1764746559.781186,1.44
1764746559.7873468,1.4
1764746559.7936242,1.67
1764746559.800146,1.56
1764746559.8062358,1.49
1764746559.812377,1.67
1764746559.818658,1.64
1764746559.824918,1.54
1764746559.831222,1.42
1764746559.8373508,1.38
1764746559.8438022,1.35
1764746559.849986,1.27
1764746559.856193,1.29
1764746559.86242,1.18
1764746559.868719,1.08
1764746559.874894,1.19
1764746559.881318,1.12
1764746559.887298,1.2
1764746559.8935869,1.07
1764746559.8999438,1.03
1764746559.9062028,1.25
1764746559.912405,1.21
1764746559.91872,1.0
1764746559.924934,1.11
1764746559.931076,1.03
1764746559.937312,1.11
1764746559.943625,1.21
1764746559.950224,1.06
1764746559.956239,1.16
1764746559.9624069,1.09
1764746559.968749,1.03
1764746559.9748712,1.19
1764746559.981274,1.11
1764746559.987646,1.11
1764746559.993664,1.16
1764746559.999944,1.17
1764746560.006148,1.4
1764746560.012404,1.32
1764746560.018816,1.13
1764746560.02486,1.11
1764746560.031313,1.25
1764746560.037376,1.1
1764746560.043562,0.89
1764746560.0498502,0.81
1764746560.0560262,0.88
1764746560.06236,0.84
1764746560.068575,0.85
1764746560.074881,0.92
1764746560.081007,0.8
1764746560.087317,0.76
1764746560.093556,0.93
1764746560.100081,0.95
1764746560.106035,0.91
1764746560.112416,1.05
1764746560.118636,1.33
1764746560.124838,2.26
1764746560.1311512,3.04
1764746560.1376152,2.9
1764746560.14357,1.74
1764746560.149823,0.72
1764746560.156103,1.02
1764746560.162345,1.38
1764746560.168596,1.47
1764746560.1748512,1.59
1764746560.181244,1.51
1764746560.1874838,1.67
1764746560.193689,1.8
1764746560.199827,1.77
1764746560.2061,2.07
1764746560.212333,2.26
1764746560.218538,2.18
1764746560.2247722,2.31
1764746560.231048,2.31
1764746560.2372658,2.48
1764746560.243537,2.63
1764746560.249864,2.54
1764746560.256094,2.62
1764746560.26226,2.68
1764746560.26868,2.81
1764746560.274842,2.89
1764746560.281322,2.72
1764746560.287519,2.77
1764746560.293638,2.99
1764746560.299841,2.92
1764746560.30603,3.06
1764746560.3124108,3.0
1764746560.318654,2.9
1764746560.324775,3.05
1764746560.331069,2.97
1764746560.337308,2.93
1764746560.343717,2.88
1764746560.3498392,2.6
1764746560.355957,2.84
1764746560.362294,2.75
1764746560.368554,2.53
1764746560.374714,2.76
1764746560.38131,2.6
1764746560.3873549,2.63
1764746560.393634,2.75
1764746560.399724,2.55
1764746560.406059,2.83
1764746560.412328,2.8
1764746560.418473,2.59
1764746560.424769,2.8
1764746560.430968,2.62
1764746560.4375749,2.61
1764746560.443562,2.78
1764746560.449926,2.49
1764746560.456065,2.6
1764746560.462425,2.61
1764746560.468544,2.56
1764746560.4747698,2.69
1764746560.480979,2.46
1764746560.487435,2.59
1764746560.49348,2.81
1764746560.4997451,2.55
1764746560.50603,2.62
1764746560.512266,2.52
1764746560.518512,2.34
1764746560.524792,2.39
1764746560.5312169,2.09
1764746560.537361,2.07
1764746560.543454,2.16
1764746560.549862,1.94
1764746560.556054,2.1
1764746560.562249,2.06
1764746560.568516,1.87
1764746560.574763,2.02
1764746560.58102,1.82
1764746560.587397,1.82
1764746560.593456,1.97
1764746560.599823,1.84
1764746560.605972,2.35
1764746560.612293,3.11
1764746560.618515,3.16
1764746560.624854,3.16
1764746560.631016,2.33
1764746560.637171,1.01
1764746560.643436,1.37
1764746560.6497731,1.7
1764746560.656019,1.68
1764746560.6623502,1.44
1764746560.66841,1.38
1764746560.674648,1.74
1764746560.680865,1.59
1764746560.687201,1.52
1764746560.693417,1.61
1764746560.6997252,1.44
1764746560.705917,1.55
1764746560.7121851,1.5
1764746560.718396,1.39
1764746560.724694,1.55
1764746560.730962,1.37
1764746560.737199,1.49
1764746560.743459,1.6
1764746560.749696,1.33
1764746560.755934,1.55
1764746560.762191,1.52
1764746560.76839,1.37
1764746560.774643,1.63
1764746560.780948,1.47
1764746560.78717,1.45
1764746560.793332,1.56
1764746560.799692,1.36
1764746560.805929,1.49
1764746560.8121018,1.37
1764746560.818413,1.2
1764746560.824655,1.33
1764746560.830963,1.12
1764746560.837096,1.13
1764746560.8433511,1.19
1764746560.849731,0.92
1764746560.855901,1.07
1764746560.862136,1.04
1764746560.8683891,0.98
1764746560.8745658,1.21
1764746560.880859,0.97
1764746560.887164,0.99
1764746560.893356,1.16
1764746560.899649,0.93
1764746560.90588,1.09
1764746560.912069,1.0
1764746560.918379,0.91
1764746560.924604,1.13
1764746560.930857,0.91
1764746560.950829,0.86
1764746560.951135,1.04
1764746560.951343,0.93
1764746560.9601762,1.14
1764746560.976299,1.04
1764746560.988471,1.02
1764746560.999916,1.4
1764746561.0037062,1.22
1764746561.012223,1.09
1764746561.042766,1.18
1764746561.043481,1.06
1764746561.043721,1.13
1764746561.043945,0.86
1764746561.0441658,0.64
1764746561.046885,0.86
1764746561.04715,0.68
1764746561.047353,0.6
1764746561.0475788,0.79
1764746561.0531142,0.65
1764746561.056923,0.72
1764746561.06223,0.61
1764746561.068376,0.57
1764746561.074678,0.72
1764746561.081129,0.53
1764746561.08709,0.73
1764746561.09332,1.49
1764746561.099647,2.06
1764746561.105831,2.37
1764746561.112092,1.72
1764746561.11841,0.25
1764746561.1246452,0.02
1764746561.130816,0.33
1764746561.137121,0.53
1764746561.143355,0.47
1764746561.149647,0.24
1764746561.155919,0.45
1764746561.162069,0.43
1764746561.168531,0.26
1764746561.174606,0.55
1764746561.180892,0.51
1764746561.1870668,0.51
1764746561.1933389,0.6
1764746561.199615,0.43
1764746561.2057989,0.61
1764746561.2120352,0.65
1764746561.218399,0.54
1764746561.224534,0.75
1764746561.230859,0.63
1764746561.2371142,0.63
1764746561.243329,0.8
1764746561.24959,0.64
1764746561.255789,0.84
1764746561.262086,0.87
1764746561.268317,0.75
1764746561.274559,0.92
1764746561.280915,0.81
1764746561.2870138,0.86
1764746561.293352,0.95
1764746561.3003368,0.7
1764746561.305876,0.82
1764746561.312209,0.9
1764746561.31839,0.69
1764746561.324582,0.78
1764746561.330954,0.71
1764746561.337101,0.82
1764746561.3432782,0.9
1764746561.3500748,0.71
1764746561.356011,0.91
1764746561.362036,0.93
1764746561.369081,0.82
1764746561.374702,1.06
1764746561.380826,0.91
1764746561.3870568,0.93
1764746561.3933282,1.13
1764746561.399769,0.93
1764746561.40583,1.1
1764746561.412086,1.18
1764746561.418425,1.07
1764746561.424602,1.24
1764746561.430769,1.19
1764746561.437037,1.32
1764746561.443358,1.53
1764746561.449993,1.38
1764746561.455795,1.57
1764746561.462062,1.73
1764746561.4682791,1.66
1764746561.4746811,1.83
1764746561.480813,1.73
1764746561.487008,1.82
1764746561.493363,1.87
1764746561.5000389,1.58
1764746561.505722,1.79
1764746561.512004,1.8
1764746561.518271,1.73
1764746561.524557,2.05
1764746561.530803,1.96
1764746561.5369432,1.98
1764746561.5432372,2.23
1764746561.54953,2.04
1764746561.5557172,2.28
1764746561.562098,2.34
1764746561.568424,2.14
1764746561.574739,2.54
1764746561.5812218,3.04
1764746561.587061,3.16
1764746561.5933068,3.16
1764746561.599952,3.16
1764746561.60584,3.15
1764746561.612105,2.59
1764746561.618338,1.93
1764746561.6245918,2.58
1764746561.6308732,2.8
1764746561.6371148,2.6
1764746561.643261,2.67
1764746561.649962,2.69
1764746561.655782,2.75
1764746561.6620831,2.67
1764746561.6683269,2.64
1764746561.674609,2.87
1764746561.68112,2.81
1764746561.687079,2.84
1764746561.693274,2.88
1764746561.699606,2.68
1764746561.705876,2.92
1764746561.712108,2.91
1764746561.7182589,2.62
1764746561.724564,2.9
1764746561.730691,2.85
1764746561.737047,2.76
1764746561.743281,3.03
1764746561.749762,2.94
1764746561.755693,3.04
1764746561.7619991,3.04
1764746561.768245,2.83
1764746561.7745411,3.09
1764746561.780877,3.04
1764746561.786974,2.91
1764746561.793165,2.99
1764746561.7999182,3.04
1764746561.805695,3.14
1764746561.811898,3.13
1764746561.8182342,3.0
1764746561.824511,3.13
1764746561.830762,3.05
1764746561.8369532,3.12
1764746561.8431811,3.14
1764746561.850654,3.12
1764746561.855777,3.09
1764746561.861985,2.99
1764746561.868233,2.8
1764746561.874551,2.95
1764746561.880718,2.87
1764746561.8869429,2.85
1764746561.893172,2.94
1764746561.899562,2.71
1764746561.905667,2.85
1764746561.911988,2.96
1764746561.918134,2.77
1764746561.924456,2.95
1764746561.930699,2.83
1764746561.936907,2.75
1764746561.943159,2.86
1764746561.949625,2.8
1764746561.955623,2.95
1764746561.9618711,2.88
1764746561.9681542,2.59
1764746561.974358,2.76
1764746561.9807858,2.51
1764746561.986837,2.21
1764746561.993097,2.21
1764746561.999423,2.07
1764746562.005615,2.09
1764746562.011891,1.97
1764746562.018188,1.76
1764746562.0244548,1.95
1764746562.030689,1.83
1764746562.036874,1.7
1764746562.043092,1.74
1764746562.049653,1.53
1764746562.055659,1.54
1764746562.061941,1.56
1764746562.0681238,1.73
1764746562.074357,2.69
1764746562.080777,2.98
1764746562.086893,2.52
1764746562.093106,1.63
1764746562.0994072,0.48
1764746562.105674,0.76
1764746562.111895,1.0
1764746562.1182091,0.64
1764746562.1243231,0.77
1764746562.130715,0.67
1764746562.1368902,0.45
1764746562.1430762,0.68
1764746562.149749,0.68
1764746562.155618,0.75
1764746562.161998,0.49
1764746562.168075,0.34
1764746562.174366,0.62
1764746562.18067,0.6
1764746562.186944,0.62
1764746562.193281,0.68
1764746562.199406,0.4
1764746562.205578,0.69
1764746562.21194,0.86
1764746562.218147,0.65
1764746562.224446,0.68
1764746562.230643,0.62
1764746562.236869,0.45
1764746562.243139,0.5
1764746562.249963,0.29
1764746562.255609,0.43
1764746562.261854,0.45
1764746562.268075,0.19
1764746562.274283,0.32
1764746562.280659,0.11
1764746562.2867908,0.0
1764746562.293066,0.08
1764746562.299419,0.0
1764746562.305589,0.0
1764746562.311916,0.0
1764746562.3180768,0.0
1764746562.324354,0.0
1764746562.330951,0.0
1764746562.336895,0.0
1764746562.343117,0.0
1764746562.349626,0.0
1764746562.3555589,0.0
1764746562.361739,0.0
1764746562.3680298,0.0
1764746562.374322,0.0
1764746562.380691,0.0
1764746562.38682,0.0
1764746562.3929229,0.0
1764746562.399764,0.0
1764746562.405488,0.0
1764746562.411789,0.0
1764746562.417987,0.0
1764746562.4243531,0.0
1764746562.4305642,0.0
1764746562.436784,0.0
1764746562.443119,0.0
1764746562.449589,0.0
1764746562.455509,0.0
1764746562.461749,0.0
1764746562.468013,0.0
1764746562.474307,0.0
1764746562.480574,0.0
1764746562.486851,0.0
1764746562.493016,0.0
1764746562.4995189,0.0
1764746562.505484,0.0
1764746562.511749,0.0
1764746562.518094,0.0
1764746562.5243049,0.0
1764746562.530591,0.0
1764746562.536787,0.0
1764746562.543062,0.0
1764746562.549265,0.0
1764746562.5556889,0.0
1764746562.5618749,0.0
1764746562.568127,0.0
1764746562.574432,0.0
1764746562.5806022,0.0
1764746562.586828,0.0
1764746562.592996,0.0
1764746562.5992708,0.0
1764746562.6054149,0.0
1764746562.611794,0.0
1764746562.6180391,0.0
1764746562.62421,0.0
1764746562.64786,0.0
1764746562.649816,0.0
1764746562.6501188,0.0
1764746562.6503549,0.0
1764746562.669684,0.0
1764746562.6872478,0.0
1764746562.7004108,0.0
1764746562.700596,0.0
1764746562.700746,0.0
1764746562.700884,0.0
1764746562.7010298,0.0
1764746562.701174,0.0
1764746562.70623,0.0
1764746562.724424,0.0
1764746562.724843,0.0
1764746562.725077,0.0
1764746562.7306318,0.0
1764746562.736862,0.0
1764746562.7484002,0.0
1764746562.756469,0.06
1764746562.7577002,0.41
1764746562.761997,0.44
1764746562.768542,0.36
1764746562.774283,0.54
1764746562.7838888,0.48
1764746562.786761,0.5
1764746562.793046,0.61
1764746562.799478,0.58
1764746562.8057091,0.76
1764746562.811879,0.96
1764746562.818073,0.93
1764746562.824277,1.09
1764746562.830511,1.12
1764746562.836774,1.24
1764746562.8430269,1.3
1764746562.849602,1.23
1764746562.855531,1.41
1764746562.861786,1.47
1764746562.868017,1.39
1764746562.874208,1.79
1764746562.88053,1.81
1764746562.886675,1.72
1764746562.89308,1.88
1764746562.899231,1.89
1764746562.90551,1.96
1764746562.911742,2.14
1764746562.9179258,2.14
1764746562.924166,2.48
1764746562.930495,2.45
1764746562.936757,2.35
1764746562.9429991,2.61
1764746562.949713,2.39
1764746562.955437,2.42
1764746562.9618251,2.45
1764746562.968011,2.18
1764746562.974286,2.44
1764746562.980501,2.34
1764746562.986736,2.21
1764746562.99308,2.58
1764746562.999298,2.48
1764746563.005453,2.51
1764746563.011751,2.55
1764746563.017971,2.5
1764746563.024159,2.85
1764746563.030462,2.74
1764746563.036926,2.75
1764746563.0429282,3.17
1764746563.049519,3.17
1764746563.055403,3.17
1764746563.061774,3.17
1764746563.067947,3.17
1764746563.0741131,3.16
1764746563.080439,2.86
1764746563.086689,2.4
1764746563.0928771,2.83
1764746563.099185,2.71
1764746563.105367,2.65
1764746563.1116228,2.79
1764746563.117913,2.64
1764746563.124106,2.92
1764746563.13045,2.79
1764746563.136754,2.64
1764746563.142889,3.02
1764746563.149684,2.73
1764746563.155408,2.65
1764746563.1616871,2.74
1764746563.167876,2.59
1764746563.174114,2.83
1764746563.1804302,2.74
1764746563.1867158,2.64
1764746563.192909,2.89
1764746563.1991968,2.62
1764746563.205353,2.76
1764746563.211571,2.95
1764746563.21789,2.73
1764746563.2242272,2.9
1764746563.230422,2.83
1764746563.236609,2.72
1764746563.242971,2.95
1764746563.249465,2.72
1764746563.255402,2.77
1764746563.261674,2.77
1764746563.267876,2.49
1764746563.2741382,2.85
1764746563.280433,2.74
1764746563.2865658,2.53
1764746563.292874,2.74
1764746563.299103,2.58
1764746563.305546,2.66
1764746563.3118012,2.67
1764746563.317856,2.49
1764746563.324115,2.76
1764746563.330365,2.58
1764746563.336662,2.42
1764746563.342819,2.7
1764746563.349235,2.49
1764746563.3553998,2.57
1764746563.361567,2.62
1764746563.367875,2.32
1764746563.3740742,2.59
1764746563.380408,2.54
1764746563.386577,2.41
1764746563.3928351,2.66
1764746563.399165,2.41
1764746563.405404,2.52
1764746563.411849,2.82
1764746563.417815,2.6
1764746563.424084,2.75
1764746563.43046,2.62
1764746563.436594,2.53
1764746563.442842,2.77
1764746563.4490938,2.35
1764746563.4553118,2.42
1764746563.461609,2.58
1764746563.467815,2.28
1764746563.474077,2.52
1764746563.480305,2.5
1764746563.486602,2.35
1764746563.49279,2.56
1764746563.49907,2.31
1764746563.505305,2.4
1764746563.511539,2.52
1764746563.5178611,2.24
1764746563.5241148,2.52
1764746563.53031,2.87
1764746563.53647,3.17
1764746563.54275,3.17
1764746563.5490508,3.17
1764746563.555243,3.16
1764746563.5615082,2.57
1764746563.5678358,1.53
1764746563.5741088,2.17
1764746563.580328,2.41
1764746563.586547,2.14
1764746563.592801,2.28
1764746563.59911,2.01
1764746563.6052969,2.15
1764746563.611509,2.32
1764746563.617719,2.01
1764746563.624054,2.25
1764746563.630267,2.25
1764746563.636485,2.16
1764746563.642802,2.39
1764746563.649002,2.22
1764746563.655272,2.47
1764746563.661553,2.54
1764746563.667829,2.18
1764746563.6740758,2.62
1764746563.680586,2.55
1764746563.686625,2.33
1764746563.692827,2.74
1764746563.699044,2.52
1764746563.705249,2.59
1764746563.711564,2.83
1764746563.717695,2.62
1764746563.7239838,2.79
1764746563.7302232,2.65
1764746563.736487,2.6
1764746563.742748,2.92
1764746563.7490518,2.66
1764746563.75525,2.75
1764746563.761549,2.88
1764746563.7677429,2.57
1764746563.774048,2.89
1764746563.7803571,2.84
1764746563.7864692,2.63
1764746563.792762,2.92
1764746563.7990332,2.66
1764746563.805226,2.72
1764746563.811557,2.79
1764746563.817742,2.43
1764746563.8240068,2.6
1764746563.830318,2.43
1764746563.836531,2.17
1764746563.84272,2.41
1764746563.848958,2.09
1764746563.855273,2.04
1764746563.861527,2.1
1764746563.867708,1.78
1764746563.874022,2.02
1764746563.8804889,1.97
1764746563.8865511,1.89
1764746563.892698,2.17
1764746563.899145,1.89
1764746563.905222,2.11
1764746563.911468,2.33
1764746563.9177291,1.96
1764746563.924044,2.17
1764746563.9302888,2.14
1764746563.936502,1.83
1764746563.942689,1.91
1764746563.948993,1.65
1764746563.955227,1.63
1764746563.961489,1.67
1764746563.9678268,1.37
1764746563.974027,1.59
1764746563.980782,1.57
1764746563.9864588,1.43
1764746563.9926689,1.77
1764746563.998991,1.52
1764746564.00514,1.54
1764746564.011526,1.67
1764746564.017868,1.54
1764746564.024003,2.32
1764746564.030373,3.09
1764746564.036555,3.14
1764746564.042829,2.96
1764746564.049021,1.55
1764746564.055452,1.02
1764746564.0615292,1.72
1764746564.067751,1.58
1764746564.073971,1.55
1764746564.0807612,1.44
1764746564.086456,1.43
1764746564.092743,1.73
1764746564.0989592,1.39
1764746564.105336,1.43
1764746564.111431,1.61
1764746564.117743,1.36
1764746564.123971,1.57
1764746564.1304991,1.41
1764746564.152972,1.26
1764746564.159319,1.52
1764746564.1609752,1.26
1764746564.161142,1.33
1764746564.1727428,1.59
1764746564.179966,1.36
1764746564.1935308,1.56
1764746564.204491,1.48
1764746564.204643,1.44
1764746564.209279,1.83
1764746564.213225,1.7
1764746564.222293,1.76
1764746564.222603,1.88
1764746564.22299,1.62
1764746564.224559,1.92
1764746564.230334,1.85
1764746564.27709,1.67
1764746564.2774122,1.88
1764746564.280375,1.66
1764746564.280659,1.85
1764746564.2809,1.89
1764746564.283378,1.66
1764746564.2836769,2.02
1764746564.283925,1.93
1764746564.286726,1.9
1764746564.295993,2.17
1764746564.29894,2.02
1764746564.305242,2.1
1764746564.311635,2.29
1764746564.317812,2.04
1764746564.323963,2.32
1764746564.3302138,2.33
1764746564.336527,2.26
1764746564.342662,2.56
1764746564.348963,2.21
1764746564.355232,2.16
1764746564.361446,2.37
1764746564.36763,2.21
1764746564.3739562,2.38
1764746564.380898,2.25
1764746564.386422,1.99
1764746564.3926249,2.46
1764746564.39924,2.43
1764746564.4051871,2.41
1764746564.411476,2.44
1764746564.4176269,2.16
1764746564.423903,2.34
1764746564.430878,2.19
1764746564.436406,1.89
1764746564.442639,2.12
1764746564.4489632,1.93
1764746564.4551208,1.92
1764746564.46145,1.96
1764746564.4676049,1.89
1764746564.473855,2.17
1764746564.4801972,2.01
1764746564.486343,1.85
1764746564.4927528,2.14
1764746564.498904,1.78
1764746564.505143,1.79
1764746564.51137,2.25
1764746564.517544,2.76
1764746564.523795,3.16
1764746564.5306282,3.16
1764746564.5362718,3.13
1764746564.542668,1.91
1764746564.548928,0.93
1764746564.555126,1.75
1764746564.56154,2.18
1764746564.567667,1.58
1764746564.573767,1.73
1764746564.580274,1.85
1764746564.586306,1.86
1764746564.592684,2.15
1764746564.598904,1.8
1764746564.605174,1.93
1764746564.611466,2.27
1764746564.617766,1.91
1764746564.623818,2.09
1764746564.630168,2.15
1764746564.636321,2.08
1764746564.642686,2.42
1764746564.6491678,2.17
1764746564.655114,2.23
1764746564.661466,2.52
1764746564.667829,2.3
1764746564.673837,2.59
1764746564.680222,2.5
1764746564.686452,2.31
1764746564.692553,2.63
1764746564.699153,2.44
1764746564.705068,2.39
1764746564.711406,2.66
1764746564.717525,2.32
1764746564.723813,2.46
1764746564.730165,2.38
1764746564.73635,2.18
1764746564.7425332,2.46
1764746564.7489622,2.14
1764746564.755062,2.2
1764746564.761678,2.42
1764746564.7677178,2.28
1764746564.7739048,2.4
1764746564.780284,2.33
1764746564.786478,2.19
1764746564.792752,2.41
1764746564.799034,2.14
1764746564.805079,2.28
1764746564.811519,2.54
1764746564.8176398,2.1
1764746564.823885,2.17
1764746564.8301592,2.22
1764746564.836341,2.0
1764746564.842562,2.23
1764746564.848786,1.96
1764746564.855057,1.9
1764746564.861471,2.18
1764746564.867614,1.9
1764746564.873787,2.05
1764746564.880451,2.06
1764746564.8863392,1.86
1764746564.8925738,2.3
1764746564.898836,2.17
1764746564.905013,1.97
1764746564.9112818,2.07
1764746564.917534,1.65
1764746564.923774,1.82
1764746564.9300869,1.77
1764746564.9362948,1.49
1764746564.942533,1.61
1764746564.948846,1.52
1764746564.954996,1.52
1764746564.961292,1.78
1764746564.967479,1.53
1764746564.973788,1.62
1764746564.9800692,1.55
1764746564.986274,1.37
1764746564.992532,1.56
1764746564.998925,1.38
1764746565.005006,1.53
1764746565.011373,2.5
1764746565.017584,3.0
1764746565.0239449,3.03
1764746565.032249,1.94
1764746565.0362382,0.61
1764746565.042687,1.02
1764746565.048904,1.3
1764746565.054976,1.1
1764746565.061486,1.0
1764746565.067572,0.9
1764746565.073827,1.21
1764746565.080066,1.1
1764746565.086418,0.83
1764746565.0925498,1.25
1764746565.098892,1.03
1764746565.104994,0.94
1764746565.1113229,1.24
1764746565.117472,1.02
1764746565.123758,1.2
1764746565.1301188,1.24
1764746565.136307,1.04
1764746565.142615,1.33
1764746565.148871,1.28
1764746565.154925,1.3
1764746565.161406,1.44
1764746565.167509,1.12
1764746565.173892,1.42
1764746565.180031,1.47
1764746565.18643,1.28
1764746565.19246,1.43
1764746565.198783,1.42
1764746565.204999,1.41
1764746565.211207,1.47
1764746565.217679,1.23
1764746565.22376,1.37
1764746565.2301362,1.32
1764746565.236318,1.29
1764746565.242608,1.52
1764746565.248807,1.26
1764746565.2550862,1.2
1764746565.2612338,1.54
1764746565.267522,1.37
1764746565.273966,1.41
1764746565.280103,1.35
1764746565.286232,1.29
1764746565.292393,1.54
1764746565.2987158,1.3
1764746565.3048708,1.36
1764746565.311251,1.51
1764746565.317407,1.29
1764746565.323709,1.58
1764746565.3303308,1.4
1764746565.3362088,1.34
1764746565.3424482,1.72
1764746565.349128,1.42
1764746565.354924,1.5
1764746565.3612092,1.81
1764746565.367522,1.53
1764746565.373805,1.73
1764746565.3800828,1.95
1764746565.386236,1.78
1764746565.392479,1.92
1764746565.398748,1.59
1764746565.404907,1.7
1764746565.411326,1.91
1764746565.417518,1.34
1764746565.423758,1.47
1764746565.431402,1.62
1764746565.4362571,1.34
1764746565.442534,1.59
1764746565.448728,1.52
1764746565.454855,1.55
1764746565.461123,1.73
1764746565.4674702,1.4
1764746565.4738188,1.59
1764746565.4799738,1.58
1764746565.486292,1.38
1764746565.4925592,1.72
1764746565.49874,1.84
1764746565.505143,2.77
1764746565.5113769,3.15
1764746565.517542,3.12
1764746565.5240262,2.26
1764746565.530001,0.94
1764746565.5362282,1.08
1764746565.542546,1.92
1764746565.548768,1.59
1764746565.554945,1.42
1764746565.561283,1.7
1764746565.567492,1.45
1764746565.57377,1.78
1764746565.580116,1.73
1764746565.5861068,1.45
1764746565.59241,1.93
1764746565.598766,1.59
1764746565.604945,1.69
1764746565.611158,2.04
1764746565.617429,1.56
1764746565.623774,1.93
1764746565.629987,2.05
1764746565.636083,1.69
1764746565.6424708,2.1
1764746565.648834,1.9
1764746565.654943,1.82
1764746565.661233,2.22
1764746565.667407,1.94
1764746565.673921,2.13
1764746565.679955,2.13
1764746565.686213,1.91
1764746565.692518,2.27
1764746565.698763,1.93
1764746565.70496,1.93
1764746565.711172,2.32
1764746565.717564,1.83
1764746565.72365,1.93
1764746565.729916,2.13
1764746565.736102,1.89
1764746565.742615,2.15
1764746565.748736,1.82
1764746565.755059,1.85
1764746565.761143,2.17
1764746565.76754,1.78
1764746565.773651,2.06
1764746565.780162,2.06
1764746565.786092,1.73
1764746565.792479,2.11
1764746565.798675,1.93
1764746565.804978,1.95
1764746565.81105,2.11
1764746565.8173518,1.71
1764746565.824745,2.05
1764746565.844272,2.05
1764746565.871629,1.66
1764746565.8717709,2.02
1764746565.871852,1.87
1764746565.8749812,1.94
1764746565.8751209,2.2
1764746565.875236,1.76
1764746565.875345,2.1
1764746565.896001,2.21
1764746565.896641,1.81
1764746565.896908,2.05
1764746565.898607,1.84
1764746565.9067678,1.71
1764746565.911096,1.83
1764746565.917407,1.46
1764746565.926312,1.62
1764746565.9313211,1.56
1764746565.936043,1.28
1764746565.943419,1.61
1764746565.948595,1.36
1764746565.9548118,1.36
1764746565.961119,1.5
1764746565.9673212,1.14
1764746565.973553,1.36
1764746565.981118,1.31
1764746565.986062,1.12
1764746565.992266,1.8
1764746565.998515,2.3
1764746566.004807,2.74
1764746566.010989,2.86
1764746566.0172858,1.41
1764746566.023542,0.53
1764746566.0303931,0.91
1764746566.0360398,1.11
1764746566.0422468,1.32
1764746566.0484931,0.97
1764746566.0547788,1.03
1764746566.0610209,1.37
1764746566.067274,1.08
1764746566.073498,1.32
1764746566.079792,1.35
1764746566.086015,1.12
1764746566.092252,1.52
1764746566.098882,1.32
1764746566.104752,1.32
1764746566.110985,1.65
1764746566.117195,1.31
1764746566.123469,1.6
1764746566.129762,1.67
1764746566.135962,1.4
1764746566.142229,1.74
1764746566.148496,1.52
1764746566.154918,1.54
1764746566.161002,1.93
1764746566.1671522,1.62
1764746566.173486,1.8
1764746566.179924,1.84
1764746566.186034,1.6
1764746566.192259,1.92
1764746566.198654,1.6
1764746566.204823,1.52
1764746566.2110348,1.83
1764746566.217172,1.44
1764746566.223435,1.54
1764746566.2297091,1.5
1764746566.235971,1.26
1764746566.242208,1.6
1764746566.2484322,1.24
1764746566.254784,1.19
1764746566.260921,1.59
1764746566.2671502,1.24
1764746566.273439,1.42
1764746566.279853,1.43
1764746566.286031,1.16
1764746566.292253,1.59
1764746566.298472,1.38
1764746566.304714,1.33
1764746566.311026,1.6
1764746566.317197,1.24
1764746566.3235562,1.47
1764746566.32978,1.52
1764746566.335907,1.21
1764746566.342219,1.65
1764746566.348462,1.5
1764746566.354679,1.48
1764746566.36092,1.7
1764746566.3672,1.4
1764746566.373439,1.73
1764746566.379722,1.81
1764746566.3860118,1.4
1764746566.3922648,1.7
1764746566.398432,1.46
1764746566.404734,1.26
1764746566.4109,1.45
1764746566.417175,1.15
1764746566.423423,1.34
1764746566.429713,1.32
1764746566.435939,1.04
1764746566.442242,1.42
1764746566.4484632,1.25
1764746566.4546912,1.19
1764746566.460903,1.41
1764746566.467242,0.93
1764746566.473508,1.22
1764746566.4798038,1.37
1764746566.485904,1.43
1764746566.492127,2.56
1764746566.498559,2.7
1764746566.504645,2.19
1764746566.510904,1.29
1764746566.517143,0.1
1764746566.523471,0.66
1764746566.529717,1.18
1764746566.536054,0.65
1764746566.542202,0.82
1764746566.548426,0.7
1764746566.554765,0.76
1764746566.5610409,1.03
1764746566.567182,0.57
1764746566.5733278,0.88
1764746566.579676,1.09
1764746566.585865,0.62
1764746566.592174,0.91
1764746566.598337,0.81
1764746566.604599,0.69
1764746566.610869,0.94
1764746566.617065,0.67
1764746566.6233652,0.9
1764746566.629634,0.92
1764746566.635938,0.64
1764746566.642093,1.05
1764746566.648362,0.81
1764746566.654697,0.8
1764746566.660911,1.17
1764746566.667079,0.78
1764746566.673373,0.98
1764746566.679609,1.07
1764746566.685909,0.75
1764746566.692118,1.05
1764746566.6983402,0.88
1764746566.704622,0.76
1764746566.710858,1.03
1764746566.71707,0.67
1764746566.7233438,0.81
1764746566.729606,0.91
1764746566.735883,0.65
1764746566.742147,0.93
1764746566.748346,0.66
1764746566.754658,0.61
1764746566.760954,1.07
1764746566.767061,0.71
1764746566.773351,0.76
1764746566.779617,0.85
1764746566.785883,0.67
1764746566.7921128,0.98
1764746566.7983391,0.78
1764746566.8046389,0.83
1764746566.810938,1.07
1764746566.817028,0.79
1764746566.823429,0.97
1764746566.829657,1.1
1764746566.8357708,0.99
1764746566.842093,1.36
1764746566.848414,1.16
1764746566.85461,1.04
1764746566.860984,1.33
1764746566.8670511,1.34
1764746566.8734238,1.54
1764746566.880148,1.4
1764746566.885761,1.09
1764746566.892058,1.35
1764746566.898304,1.03
1764746566.9045389,0.96
1764746566.910814,1.25
1764746566.9170182,1.0
1764746566.92331,1.16
1764746566.92956,1.18
1764746566.9358752,0.97
1764746566.9420428,1.27
1764746566.9483972,1.0
1764746566.954638,0.96
1764746566.9608388,1.36
1764746566.967036,1.04
1764746566.973299,1.08
1764746566.979518,1.54
1764746566.9858198,2.12
1764746566.992034,2.93
1764746566.998258,2.59
1764746567.004626,1.29
1764746567.0107992,0.61
1764746567.0170088,0.76
1764746567.023256,1.44
1764746567.029612,1.4
1764746567.035883,1.12
1764746567.041986,1.48
1764746567.048272,1.32
1764746567.054546,1.24
1764746567.060805,1.45
1764746567.0670028,1.21
1764746567.07324,1.43
1764746567.079562,1.38
1764746567.085851,0.9
1764746567.092025,1.29
1764746567.098289,1.19
1764746567.104492,1.08
1764746567.110701,1.29
1764746567.1170409,1.04
1764746567.123285,1.22
1764746567.1295822,1.29
1764746567.135788,1.05
1764746567.142097,1.29
1764746567.148243,1.15
1764746567.1545558,1.27
1764746567.160766,1.51
1764746567.166966,1.12
1764746567.173235,1.32
1764746567.179568,1.42
1764746567.185754,1.15
1764746567.1920252,1.32
1764746567.1982222,1.22
1764746567.204496,1.17
1764746567.210739,1.33
1764746567.21696,1.13
1764746567.223216,1.3
1764746567.229507,1.4
1764746567.235898,1.2
1764746567.2419589,1.52
1764746567.2482471,1.34
1764746567.25441,1.28
1764746567.2607412,1.54
1764746567.2669928,1.27
1764746567.273254,1.55
1764746567.279555,1.56
1764746567.2858188,1.19
1764746567.292087,1.37
1764746567.298265,1.34
1764746567.315847,1.38
1764746567.32148,1.49
1764746567.3219898,1.2
1764746567.326255,1.47
1764746567.332326,1.55
1764746567.350632,1.48
1764746567.35261,1.74
1764746567.352709,1.62
1764746567.358196,1.62
1764746567.364459,1.96
1764746567.373295,1.69
1764746567.373427,1.72
1764746567.390839,1.74
1764746567.391435,1.31
1764746567.392245,1.51
1764746567.398371,1.36
1764746567.405787,1.28
1764746567.415832,1.39
1764746567.4217868,1.14
1764746567.4236548,1.36
1764746567.430753,1.53
1764746567.4358342,1.17
1764746567.442049,1.36
1764746567.449281,1.19
1764746567.4545438,1.09
1764746567.46079,1.35
1764746567.466998,1.14
1764746567.473191,1.72
1764746567.479672,2.63
1764746567.485703,2.59
1764746567.491902,2.13
1764746567.498212,0.75
1764746567.5044858,0.33
1764746567.510821,0.96
1764746567.51696,0.77
1764746567.523067,0.77
1764746567.5294569,0.95
1764746567.535646,0.87
1764746567.54192,1.04
1764746567.548128,1.09
1764746567.55439,1.19
1764746567.56072,1.2
1764746567.566855,0.95
1764746567.5731,1.31
1764746567.579509,1.47
1764746567.585665,1.2
1764746567.591926,1.34
1764746567.5981991,1.38
1764746567.604347,1.33
1764746567.610728,1.51
1764746567.616929,1.4
1764746567.623105,1.55
1764746567.6294348,1.61
1764746567.635613,1.6
1764746567.641886,1.9
1764746567.648128,1.81
1764746567.6544268,1.92
1764746567.660749,2.18
1764746567.666805,1.91
1764746567.673067,2.07
1764746567.679444,2.25
1764746567.685707,2.06
1764746567.6918778,2.2
1764746567.698133,2.01
1764746567.704442,2.06
1764746567.7106528,2.49
1764746567.716892,2.24
1764746567.723199,2.13
1764746567.729422,2.46
1764746567.735619,2.44
1764746567.741869,2.47
1764746567.748215,2.49
1764746567.754406,2.58
1764746567.7607129,2.66
1764746567.766822,2.52
1764746567.773103,2.77
1764746567.779448,2.8
1764746567.7856178,2.63
1764746567.7918878,2.81
1764746567.7981372,2.7
1764746567.8043368,2.73
1764746567.810766,2.97
1764746567.8169038,2.7
1764746567.8231602,2.83
1764746567.8294542,2.97
1764746567.835621,2.84
1764746567.841899,3.07
1764746567.84818,3.05
1764746567.854419,3.07
1764746567.8607948,3.08
1764746567.866804,2.94
1764746567.873242,3.13
1764746567.879435,3.04
1764746567.885696,2.68
1764746567.89183,2.78
1764746567.898186,2.68
1764746567.90432,2.71
1764746567.91071,2.87
1764746567.9167738,2.55
1764746567.9230778,2.64
1764746567.9293928,2.71
1764746567.9355688,2.36
1764746567.941932,2.69
1764746567.948373,2.56
1764746567.9546912,2.4
1764746567.9607182,2.71
1764746567.967034,3.09
1764746567.973261,3.16
1764746567.979485,3.16
1764746567.985622,3.16
1764746567.991935,3.15
1764746567.998163,2.61
1764746568.004469,1.8
1764746568.010699,2.35
1764746568.016873,2.39
1764746568.0231109,2.3
1764746568.029452,2.24
1764746568.035648,2.07
1764746568.04185,2.41
1764746568.048099,2.23
1764746568.054316,2.05
1764746568.0606122,2.31
1764746568.066784,2.11
1764746568.073101,2.25
1764746568.079394,2.28
1764746568.085539,1.99
1764746568.091947,2.35
1764746568.098027,2.17
1764746568.104373,1.9
1764746568.110608,2.17
1764746568.116796,1.97
1764746568.123085,2.05
1764746568.129438,2.04
1764746568.1355991,1.82
1764746568.141832,2.11
1764746568.14808,1.91
1764746568.154389,1.88
1764746568.160578,2.09
1764746568.166764,1.65
1764746568.172999,1.72
1764746568.17934,1.79
1764746568.185565,1.4
1764746568.191917,1.69
1764746568.197985,1.48
1764746568.204306,1.26
1764746568.210685,1.42
1764746568.216804,1.07
1764746568.223041,1.11
1764746568.2292638,1.11
1764746568.235517,0.75
1764746568.242094,1.07
1764746568.24806,0.88
1764746568.254369,0.66
1764746568.260535,0.91
1764746568.266845,0.54
1764746568.273122,0.57
1764746568.27924,0.64
1764746568.285525,0.28
1764746568.291775,0.67
1764746568.2980092,0.6
1764746568.304269,0.39
1764746568.310608,0.54
1764746568.316798,0.17
1764746568.323012,0.32
1764746568.329388,0.39
1764746568.335541,0.0
1764746568.341794,0.32
1764746568.348116,0.25
1764746568.3543,0.0
1764746568.360532,0.14
1764746568.366773,0.0
1764746568.372992,0.0
1764746568.379436,0.0
1764746568.385619,0.0
1764746568.391722,0.0
1764746568.398016,0.0
1764746568.4043012,0.0
1764746568.4106722,0.0
1764746568.416726,0.0
1764746568.422968,0.0
1764746568.429287,0.0
1764746568.435755,0.0
1764746568.441927,0.0
1764746568.4480572,0.0
1764746568.4543118,0.0
1764746568.460646,0.0
1764746568.466668,0.0
1764746568.473204,0.0
1764746568.479251,0.0
1764746568.4855082,0.0
1764746568.491839,0.0
1764746568.497959,0.0
1764746568.504363,0.0
1764746568.510624,0.0
1764746568.516692,0.0
1764746568.523009,0.0
1764746568.529226,0.0
1764746568.535566,0.0
1764746568.54186,0.0
1764746568.548007,0.0
1764746568.554147,0.0
1764746568.560624,0.0
1764746568.566695,0.0
1764746568.57303,0.0
1764746568.579436,0.0
1764746568.585531,0.0
1764746568.591862,0.0
1764746568.598009,0.0
1764746568.6042712,0.0
1764746568.610579,0.0
1764746568.616628,0.0
1764746568.623032,0.0
1764746568.629465,0.0
1764746568.635404,0.0
1764746568.6416771,0.0
1764746568.6479192,0.0
1764746568.65429,0.0
1764746568.6606069,0.0
1764746568.666909,0.0
1764746568.672949,0.0
1764746568.6794932,0.0
1764746568.685597,0.0
1764746568.691808,0.0
1764746568.697949,0.0
1764746568.704299,0.0
1764746568.710686,0.0
1764746568.7166238,0.0
1764746568.723176,0.0
1764746568.729276,0.0
1764746568.735421,0.0
1764746568.741846,0.0
1764746568.747919,0.0
1764746568.754169,0.0
1764746568.7604742,0.0
1764746568.766579,0.0
1764746568.7730172,0.02
1764746568.779231,0.15
1764746568.785401,0.0
1764746568.7928069,0.46
1764746568.804396,0.43
1764746568.860329,0.22
1764746568.861956,0.55
1764746568.862082,0.47
1764746568.873685,0.69
1764746568.873903,0.81
1764746568.874048,0.51
1764746568.874184,1.11
1764746568.874315,1.07
1764746568.874449,0.81
1764746568.874645,1.17
1764746568.877524,0.99
1764746568.8776991,1.0
1764746568.882358,0.94
1764746568.8854668,0.73
1764746568.89166,1.16
1764746568.8991349,0.77
1764746568.904202,0.48
1764746568.91155,1.01
1764746568.9170492,0.83
1764746568.9229288,0.97
1764746568.929237,1.21
1764746568.9354398,0.97
1764746568.941924,1.25
1764746568.9478762,1.18
1764746568.954166,1.25
1764746568.9606242,2.17
1764746568.966632,2.71
1764746568.972874,2.97
1764746568.979233,2.68
1764746568.985445,1.24
1764746568.991752,1.09
1764746568.99787,1.54
1764746569.0041752,1.69
1764746569.010449,1.86
1764746569.01661,1.62
1764746569.022924,1.89
1764746569.029643,2.07
1764746569.035368,1.8
1764746569.0421262,2.23
1764746569.047861,2.17
1764746569.054118,2.1
1764746569.061093,2.55
1764746569.066633,2.24
1764746569.072895,2.32
1764746569.07937,2.62
1764746569.085388,2.32
1764746569.0922618,2.59
1764746569.097895,2.55
1764746569.10414,2.52
1764746569.111288,2.92
1764746569.116716,2.68
1764746569.122874,2.83
1764746569.12932,3.07
1764746569.135344,2.83
1764746569.141911,3.13
1764746569.14784,3.04
1764746569.154154,3.0
1764746569.1614132,3.14
1764746569.1666229,3.09
1764746569.172856,3.13
1764746569.179281,3.13
1764746569.185432,3.07
1764746569.191683,3.13
1764746569.197946,3.06
1764746569.204206,3.05
1764746569.211314,3.13
1764746569.216577,3.03
1764746569.222843,3.13
1764746569.229325,3.13
1764746569.2353358,3.11
1764746569.242904,3.14
1764746569.247869,3.14
1764746569.254163,3.14
1764746569.2609851,3.14
1764746569.266672,3.14
1764746569.272924,3.14
1764746569.279144,3.14
1764746569.285353,3.14
1764746569.291625,3.14
1764746569.297909,3.14
1764746569.3044028,3.14
1764746569.310396,3.14
1764746569.3166022,3.14
1764746569.322867,3.14
1764746569.329128,3.14
1764746569.335312,3.15
1764746569.341742,3.15
1764746569.347758,3.15
1764746569.354172,3.15
1764746569.360939,3.15
1764746569.366533,3.15
1764746569.3728151,3.15
1764746569.379689,3.14
1764746569.385317,3.12
1764746569.3916538,3.11
1764746569.397799,2.87
1764746569.404132,2.89
1764746569.410488,3.13
1764746569.416671,3.02
1764746569.4228008,3.07
1764746569.429128,3.13
1764746569.4352992,3.05
1764746569.4416,3.13
1764746569.4477718,3.07
1764746569.454141,3.11
1764746569.4603891,3.15
1764746569.4666398,3.16
1764746569.472801,3.16
1764746569.479098,3.16
1764746569.4852312,3.16
1764746569.4915872,3.16
1764746569.497748,3.15
1764746569.504068,3.02
1764746569.510328,2.7
1764746569.516513,2.57
1764746569.522722,3.06
1764746569.529026,3.11
1764746569.535226,2.78
1764746569.5414982,3.06
1764746569.5478048,3.12
1764746569.554024,3.14
1764746569.560364,3.14
1764746569.566546,3.14
1764746569.572678,3.15
1764746569.579016,3.15
1764746569.585261,3.15
1764746569.59157,3.16
1764746569.5977511,3.16
1764746569.6039412,3.17
1764746569.61026,3.16
1764746569.616574,3.16
1764746569.622666,3.16
1764746569.629057,3.16
1764746569.635193,3.16
1764746569.641612,3.17
1764746569.647806,3.17
1764746569.654025,3.17
1764746569.6607711,3.16
1764746569.6664808,3.16
1764746569.672739,3.16
1764746569.6790028,3.16
1764746569.685195,3.16
1764746569.691576,3.16
1764746569.697748,3.16
1764746569.703996,3.15
1764746569.710229,3.15
1764746569.7165031,3.15
1764746569.72271,3.15
1764746569.729012,3.15
1764746569.7352169,3.14
1764746569.7414231,3.15
1764746569.747648,3.13
1764746569.7539682,3.13
1764746569.760385,3.14
1764746569.7665238,2.95
1764746569.772748,2.92
1764746569.77892,3.02
1764746569.785168,2.9
1764746569.791492,3.1
1764746569.7977102,2.93
1764746569.803967,2.85
1764746569.810296,3.13
1764746569.816509,2.84
1764746569.822714,2.88
1764746569.828912,3.07
1764746569.835204,2.71
1764746569.841641,2.97
1764746569.8477042,2.81
1764746569.853899,2.57
1764746569.860302,2.87
1764746569.8664398,2.25
1764746569.872719,2.11
1764746569.878922,2.27
1764746569.885198,1.93
1764746569.891438,2.17
1764746569.897782,2.02
1764746569.903878,1.84
1764746569.910224,2.24
1764746569.916524,1.91
1764746569.922705,1.93
1764746569.929087,1.97
1764746569.935206,1.58
1764746569.9414349,1.92
1764746569.9475698,1.83
1764746569.953973,2.16
1764746569.9601998,3.15
1764746569.966416,3.14
1764746569.9726982,3.03
1764746569.97888,1.71
1764746569.985187,0.53
1764746569.991481,1.41
1764746569.997653,1.48
1764746570.0039198,1.09
1764746570.0102248,1.36
1764746570.016417,1.14
1764746570.02267,1.34
1764746570.028825,1.48
1764746570.035172,1.0
1764746570.041467,1.23
1764746570.0476842,1.23
1764746570.053931,1.07
1764746570.0602272,1.26
1764746570.066429,1.05
1764746570.072665,1.09
1764746570.0789142,1.26
1764746570.0851898,1.02
1764746570.0914218,1.25
1764746570.0976572,1.13
1764746570.103904,1.11
1764746570.110225,1.28
1764746570.1164238,1.02
1764746570.122561,1.41
1764746570.128851,1.43
1764746570.135211,1.07
1764746570.14144,1.36
1764746570.147715,1.31
1764746570.1539369,1.24
1764746570.1602528,1.4
1764746570.166434,0.99
1764746570.172739,1.11
1764746570.1789382,1.38
1764746570.185209,1.27
1764746570.191419,1.35
1764746570.197619,1.1
1764746570.203891,1.27
1764746570.2100852,1.65
1764746570.216324,1.3
1764746570.222618,1.29
1764746570.228805,1.41
1764746570.235138,1.18
1764746570.241312,1.49
1764746570.2476192,1.32
1764746570.275396,1.13
1764746570.27967,1.4
1764746570.287743,1.18
1764746570.289668,1.27
1764746570.289978,1.44
1764746570.291042,1.15
1764746570.29366,1.48
1764746570.298534,1.42
1764746570.305065,1.33
1764746570.3125272,1.67
1764746570.31699,1.39
1764746570.323223,1.48
1764746570.33452,1.71
1764746570.3369548,1.42
1764746570.341792,1.47
1764746570.3529222,1.44
1764746570.353942,1.34
1764746570.360114,1.48
1764746570.366538,1.17
1764746570.375898,1.31
1764746570.3788748,1.42
1764746570.385203,1.2
1764746570.391484,1.53
1764746570.397708,1.33
1764746570.403862,1.2
1764746570.4102662,1.63
1764746570.416379,1.4
1764746570.4226408,1.66
1764746570.428851,1.79
1764746570.4351418,1.54
1764746570.4414122,1.96
1764746570.447534,2.56
1764746570.453807,3.16
1764746570.4602292,3.16
1764746570.466252,3.16
1764746570.472536,2.53
1764746570.478796,1.39
1764746570.485048,1.57
1764746570.491271,2.42
1764746570.497613,2.09
1764746570.503808,1.77
1764746570.510443,2.27
1764746570.5163698,2.17
1764746570.522753,2.09
1764746570.528876,2.21
1764746570.535158,2.05
1764746570.541322,2.36
1764746570.547756,2.25
1764746570.553888,2.06
1764746570.560132,2.35
1764746570.5663412,2.08
1764746570.572603,2.24
1764746570.5788958,2.34
1764746570.58528,1.96
1764746570.591331,2.38
1764746570.5976262,2.43
1764746570.603727,2.22
1764746570.610094,2.53
1764746570.616232,2.53
1764746570.6226811,2.68
1764746570.628824,2.77
1764746570.63504,2.4
1764746570.641311,2.68
1764746570.647544,2.62
1764746570.653725,2.42
1764746570.660156,2.72
1764746570.666316,2.39
1764746570.672641,2.35
1764746570.67879,2.49
1764746570.685035,2.28
1764746570.691333,2.54
1764746570.697544,2.4
1764746570.7038069,2.23
1764746570.710272,2.68
1764746570.716206,2.36
1764746570.722502,2.49
1764746570.7287831,2.71
1764746570.735091,2.32
1764746570.7412329,2.66
1764746570.747646,2.62
1764746570.753844,2.49
1764746570.760284,2.84
1764746570.76624,2.46
1764746570.772774,2.46
1764746570.7787552,2.68
1764746570.785227,2.41
1764746570.791268,2.91
1764746570.79745,2.8
1764746570.803775,2.46
1764746570.81003,2.84
1764746570.81626,2.68
1764746570.822387,2.79
1764746570.828774,2.91
1764746570.835097,2.51
1764746570.8412118,2.87
1764746570.84747,2.7
1764746570.8536088,2.27
1764746570.8600051,2.68
1764746570.866194,2.34
1764746570.8725069,2.34
1764746570.878647,2.62
1764746570.885081,2.29
1764746570.891201,2.57
1764746570.897362,2.4
1764746570.9037912,2.29
1764746570.910115,2.67
1764746570.916259,2.36
1764746570.922475,2.41
1764746570.928758,2.65
1764746570.935043,2.67
1764746570.9412448,3.16
1764746570.947426,3.16
1764746570.95364,3.17
1764746570.9599948,3.16
1764746570.966188,2.47
1764746570.972385,1.6
1764746570.978698,2.18
1764746570.98499,2.29
1764746570.991213,2.29
1764746570.99767,2.01
1764746571.003662,1.94
1764746571.010046,2.34
1764746571.0162072,1.99
1764746571.0223842,2.04
1764746571.028621,2.24
1764746571.034989,1.91
1764746571.041122,2.15
1764746571.047422,2.06
1764746571.053659,1.88
1764746571.059924,2.2
1764746571.06618,1.89
1764746571.072407,1.95
1764746571.078652,2.27
1764746571.085014,1.87
1764746571.091324,2.14
1764746571.0974011,2.09
1764746571.103745,1.91
1764746571.109963,2.29
1764746571.116139,1.99
1764746571.122418,2.07
1764746571.128609,2.19
1764746571.134911,1.77
1764746571.1411982,2.12
1764746571.14742,1.96
1764746571.153585,1.72
1764746571.159942,2.03
1764746571.166155,1.63
1764746571.172441,1.68
1764746571.178647,1.85
1764746571.1849642,1.51
1764746571.191134,1.86
1764746571.1974442,1.75
1764746571.2036512,1.54
1764746571.209929,1.87
1764746571.216127,1.53
1764746571.222395,1.65
1764746571.228661,1.78
1764746571.234891,1.42
1764746571.24109,1.73
1764746571.247299,1.58
1764746571.2535732,1.39
1764746571.259939,1.66
1764746571.266132,1.33
1764746571.272335,1.57
1764746571.278774,1.65
1764746571.2850828,1.29
1764746571.291138,1.75
1764746571.297427,1.59
1764746571.303565,1.41
1764746571.310009,1.94
1764746571.316121,1.52
1764746571.322616,1.44
1764746571.32867,1.57
1764746571.334972,1.24
1764746571.341131,1.38
1764746571.3473878,1.05
1764746571.35358,0.84
1764746571.360006,1.2
1764746571.3662012,0.81
1764746571.372368,0.85
1764746571.3785658,1.0
1764746571.3848472,0.65
1764746571.391106,0.93
1764746571.397381,0.79
1764746571.4035242,0.59
1764746571.409871,0.86
1764746571.416057,0.55
1764746571.42241,0.84
1764746571.428567,1.67
1764746571.4349,2.07
1764746571.441115,2.44
1764746571.447412,1.53
1764746571.453565,0.04
1764746571.459866,0.28
1764746571.466057,0.57
1764746571.472306,0.73
1764746571.478696,0.7
1764746571.484802,0.28
1764746571.4910789,0.7
1764746571.497306,0.61
1764746571.5035598,0.38
1764746571.509881,0.79
1764746571.5159612,0.47
1764746571.522282,0.55
1764746571.528524,0.71
1764746571.5350778,0.38
1764746571.541051,0.71
1764746571.547303,0.58
1764746571.553571,0.35
1764746571.5598888,0.77
1764746571.5660422,0.5
1764746571.572356,0.63
1764746571.57861,0.75
1764746571.584813,0.43
1764746571.59106,0.84
1764746571.5973382,0.71
1764746571.60354,0.53
1764746571.6098292,0.99
1764746571.616045,0.68
1764746571.622282,0.72
1764746571.62849,0.93
1764746571.6348648,0.58
1764746571.641025,0.86
1764746571.647246,0.7
1764746571.653515,0.58
1764746571.6598358,0.94
1764746571.666118,0.58
1764746571.6723251,0.69
1764746571.6785998,0.86
1764746571.684782,0.51
1764746571.691086,0.88
1764746571.697342,0.76
1764746571.703497,0.53
1764746571.709781,0.91
1764746571.716037,0.63
1764746571.722204,0.67
1764746571.728458,0.81
1764746571.742358,0.52
1764746571.742792,0.84
1764746571.785473,0.69
1764746571.791195,0.59
1764746571.7914062,1.01
1764746571.791542,0.73
1764746571.791671,0.84
1764746571.798197,1.11
1764746571.798514,0.92
1764746571.798763,1.2
1764746571.7990122,1.15
1764746571.8171232,1.18
1764746571.81779,1.48
1764746571.8182058,1.08
1764746571.822346,1.27
1764746571.828701,1.43
1764746571.8347788,0.87
1764746571.841067,1.15
1764746571.847412,1.11
1764746571.8537128,0.95
1764746571.859873,1.3
1764746571.866091,1.01
1764746571.872778,1.17
1764746571.8786108,1.31
1764746571.884845,0.97
1764746571.8911512,1.33
1764746571.898019,1.18
1764746571.904372,0.98
1764746571.909795,1.38
1764746571.916052,1.43
1764746571.922414,2.42
1764746571.928551,3.02
1764746571.934755,2.34
1764746571.941052,1.59
1764746571.947273,0.64
1764746571.953522,0.77
1764746571.960187,1.47
1764746571.9664571,1.04
1764746571.972142,1.08
1764746571.978514,1.28
1764746571.98479,1.0
1764746571.9909272,1.36
1764746571.9972858,1.17
1764746572.003636,1.07
1764746572.009744,1.49
1764746572.0160909,1.12
1764746572.0222888,1.27
1764746572.028537,1.44
1764746572.034688,1.05
1764746572.040986,1.46
1764746572.047276,1.35
1764746572.053496,0.97
1764746572.059755,1.2
1764746572.066029,0.98
1764746572.072268,1.18
1764746572.0784378,1.38
1764746572.084911,1.1
1764746572.090971,1.47
1764746572.097235,1.33
1764746572.1034648,1.26
1764746572.1097898,1.6
1764746572.115862,1.23
1764746572.122119,1.41
1764746572.128453,1.61
1764746572.1347342,1.29
1764746572.141042,1.6
1764746572.1472151,1.36
1764746572.1534731,1.12
1764746572.1598,1.5
1764746572.165952,1.1
1764746572.172253,1.15
1764746572.178457,1.33
1764746572.18464,0.87
1764746572.19111,1.1
1764746572.197221,0.94
1764746572.2034009,0.49
1764746572.209658,0.8
1764746572.215929,0.58
1764746572.222195,0.57
1764746572.22843,0.69
1764746572.234698,0.39
1764746572.241016,0.7
1764746572.247233,0.46
1764746572.2533472,0.09
1764746572.259629,0.46
1764746572.26597,0.25
1764746572.272201,0.3
1764746572.278392,0.41
1764746572.2846668,0.0
1764746572.291105,0.31
1764746572.297301,0.31
1764746572.303596,0.06
1764746572.309927,0.35
1764746572.3160708,0.15
1764746572.322336,0.09
1764746572.328636,0.0
1764746572.33481,0.0
1764746572.3412611,0.0
1764746572.347142,0.0
1764746572.353455,0.0
1764746572.359804,0.0
1764746572.365966,0.0
1764746572.372132,0.0
1764746572.37857,0.0
1764746572.3846982,0.0
1764746572.391224,0.0
1764746572.397138,0.0
1764746572.403491,0.0
1764746572.409733,0.0
1764746572.415935,0.0
1764746572.4222238,0.24
1764746572.428354,1.07
1764746572.434637,0.0
1764746572.441004,0.0
1764746572.447179,0.0
1764746572.45361,0.0
1764746572.459947,0.0
1764746572.466017,0.0
1764746572.4723022,0.0
1764746572.47849,0.0
1764746572.4848242,0.0
1764746572.4910772,0.0
1764746572.4971242,0.0
1764746572.50353,0.0
1764746572.509844,0.0
1764746572.516011,0.0
1764746572.5222442,0.0
1764746572.528306,0.0
1764746572.534747,0.0
1764746572.54125,0.0
1764746572.547116,0.0
1764746572.553667,0.0
1764746572.559791,0.0
1764746572.5659451,0.0
1764746572.5721622,0.0
1764746572.578708,0.0
1764746572.584655,0.0
1764746572.591372,0.0
1764746572.597066,0.0
1764746572.603344,0.0
1764746572.609621,0.07
1764746572.615868,0.33
1764746572.622112,0.51
1764746572.6283278,0.45
1764746572.634567,0.29
1764746572.640853,0.53
1764746572.6470358,0.47
1764746572.653323,0.42
1764746572.659591,0.7
1764746572.665816,0.55
1764746572.672118,0.56
1764746572.678282,0.7
1764746572.684466,0.53
1764746572.6908731,0.73
1764746572.6970508,0.72
1764746572.703361,0.49
1764746572.709711,0.63
1764746572.715874,0.17
1764746572.722094,0.0
1764746572.72838,0.17
1764746572.734731,0.11
1764746572.74178,0.25
1764746572.747192,0.21
1764746572.7532291,0.11
1764746572.759742,0.51
1764746572.765783,0.51
1764746572.772371,0.42
1764746572.778431,0.48
1764746572.78459,0.51
1764746572.791286,0.68
1764746572.797096,0.51
1764746572.803435,0.36
1764746572.809653,0.49
1764746572.81587,0.16
1764746572.82208,0.04
1764746572.82837,0.03
1764746572.834507,0.0
1764746572.841037,0.0
1764746572.847062,0.0
1764746572.853513,0.0
1764746572.859618,0.0
1764746572.865837,0.0
1764746572.872053,0.0
1764746572.878269,0.0
1764746572.884596,0.0
1764746572.890958,0.0
1764746572.897058,0.0
1764746572.903332,0.74
1764746572.909552,1.91
1764746572.915678,1.59
1764746572.9220889,0.38
1764746572.928212,0.0
1764746572.934613,0.0
1764746572.941052,0.25
1764746572.9470248,0.58
1764746572.953349,0.45
1764746572.959645,0.51
1764746572.965864,0.63
1764746572.9722052,0.68
1764746572.9783318,0.8
1764746572.984704,0.78
1764746572.990906,0.86
1764746572.997172,0.97
1764746573.003484,0.95
1764746573.009592,1.1
1764746573.0158222,1.19
1764746573.022174,1.22
1764746573.0282948,1.3
1764746573.034545,1.28
1764746573.041108,1.43
1764746573.047136,1.51
1764746573.053604,1.46
1764746573.059649,1.65
1764746573.065811,1.71
1764746573.072173,1.7
1764746573.078272,1.8
1764746573.084529,1.76
1764746573.091383,1.87
1764746573.097209,1.9
1764746573.10353,1.75
1764746573.1095989,1.89
1764746573.115705,1.9
1764746573.1221309,1.84
1764746573.128395,1.86
1764746573.134508,1.78
1764746573.140955,1.89
1764746573.147104,1.92
1764746573.15329,1.81
1764746573.159658,1.84
1764746573.165647,1.52
1764746573.172021,1.42
1764746573.1782668,1.54
1764746573.184603,1.44
1764746573.1915672,1.46
1764746573.196959,1.52
1764746573.203171,1.41
1764746573.209548,1.52
1764746573.215677,1.56
1764746573.221952,1.48
1764746573.228203,1.43
1764746573.23438,1.29
1764746573.241054,1.1
1764746573.246904,1.19
1764746573.25312,1.25
1764746573.259443,1.27
1764746573.26564,1.27
1764746573.272057,1.41
1764746573.27819,1.56
1764746573.284409,1.46
1764746573.290796,1.4
1764746573.297067,1.49
1764746573.303355,1.23
1764746573.309503,1.1
1764746573.315799,1.16
1764746573.322078,1.09
1764746573.328331,1.13
1764746573.334513,1.15
1764746573.34093,1.16
1764746573.346988,1.23
1764746573.353338,1.17
1764746573.359585,1.23
1764746573.365803,1.26
1764746573.371988,1.14
1764746573.3782258,1.18
1764746573.384557,1.3
1764746573.390771,1.99
1764746573.3971431,2.84
1764746573.40331,2.79
1764746573.409448,1.98
1764746573.4157078,0.85
1764746573.4301078,0.75
1764746573.446308,1.26
1764746573.4465091,1.29
1764746573.446653,1.14
1764746573.451741,1.18
1764746573.45881,1.14
1764746573.461489,1.12
1764746573.467453,1.09
1764746573.4774258,1.07
1764746573.485285,1.2
1764746573.487189,1.14
1764746573.490881,1.09
1764746573.4969149,1.22
1764746573.503146,1.18
1764746573.509459,1.2
1764746573.5156631,1.27
1764746573.522046,1.22
1764746573.533531,1.27
1764746573.534613,1.27
1764746573.542391,1.3
1764746573.546871,1.4
1764746573.553126,1.33
1764746573.559432,1.35
1764746573.5658472,1.44
1764746573.5721228,1.39
1764746573.578086,1.46
1764746573.584362,1.45
1764746573.59118,1.42
1764746573.5968618,1.5
1764746573.603155,1.43
1764746573.6093838,1.43
1764746573.6156402,1.43
1764746573.621969,1.29
1764746573.628063,1.36
1764746573.634441,1.36
1764746573.64112,1.39
1764746573.64685,1.6
1764746573.653225,1.54
1764746573.659481,1.48
1764746573.66565,1.49
1764746573.67196,1.39
1764746573.6782248,1.44
1764746573.684408,1.4
1764746573.690702,1.33
1764746573.696921,1.37
1764746573.703174,1.38
1764746573.709471,1.4
1764746573.715667,1.41
1764746573.721995,1.47
1764746573.728058,1.58
1764746573.7344089,1.53
1764746573.740754,1.52
1764746573.746924,1.6
1764746573.7531672,1.64
1764746573.759766,1.73
1764746573.7656178,1.73
1764746573.7720058,1.56
1764746573.778044,1.67
1764746573.7844129,1.54
1764746573.7907,1.31
1764746573.7969291,1.39
1764746573.803155,1.34
1764746573.809422,1.3
1764746573.815629,1.3
1764746573.821894,1.3
1764746573.828037,1.4
1764746573.834363,1.36
1764746573.840981,1.3
1764746573.846949,1.4
1764746573.85312,1.28
1764746573.859388,1.25
1764746573.865528,1.36
1764746573.87187,1.72
1764746573.878013,2.75
1764746573.884376,3.08
1764746573.890899,2.51
1764746573.896854,1.35
1764746573.903051,0.82
1764746573.9093409,1.3
1764746573.915592,1.42
1764746573.921963,1.2
1764746573.92801,1.29
1764746573.9344,1.33
1764746573.941092,1.3
1764746573.946869,1.39
1764746573.9530492,1.36
1764746573.959203,1.41
1764746573.965555,1.48
1764746573.971839,1.41
1764746573.978011,1.49
1764746573.984242,1.52
1764746573.990561,1.51
1764746573.996896,1.57
1764746574.0029922,1.47
1764746574.0092769,1.54
1764746574.015578,1.65
1764746574.021781,1.54
1764746574.027987,1.57
1764746574.034306,1.61
1764746574.040662,1.61
1764746574.046916,1.67
1764746574.053057,1.68
1764746574.059308,1.74
1764746574.065614,1.71
1764746574.072045,1.65
1764746574.077958,1.79
1764746574.0842628,1.71
1764746574.090602,1.62
1764746574.096852,1.72
1764746574.1029902,1.65
1764746574.1092649,1.63
1764746574.115537,1.66
1764746574.121802,1.57
1764746574.127945,1.62
1764746574.134304,1.61
1764746574.14054,1.58
1764746574.146772,1.64
1764746574.152972,1.54
1764746574.159266,1.58
1764746574.1654248,1.63
1764746574.171799,1.54
1764746574.177963,1.56
1764746574.184263,1.54
1764746574.190509,1.5
1764746574.197118,1.56
1764746574.2031171,1.48
1764746574.209281,1.48
1764746574.215999,1.54
1764746574.221719,1.52
1764746574.227977,1.68
1764746574.234252,1.83
1764746574.241378,1.91
1764746574.246735,1.96
1764746574.253042,1.77
1764746574.259176,1.79
1764746574.265534,1.82
1764746574.271873,1.56
1764746574.277982,1.53
1764746574.284258,1.51
1764746574.2905338,1.44
1764746574.297014,1.47
1764746574.303005,1.44
1764746574.30917,1.49
1764746574.315498,1.49
1764746574.321895,1.41
1764746574.3280032,1.54
1764746574.334265,1.49
1764746574.3406131,1.41
1764746574.346758,1.54
1764746574.352965,1.74
1764746574.359326,2.6
1764746574.36553,3.14
1764746574.372015,2.95
1764746574.377972,2.07
1764746574.384318,0.98
1764746574.390858,1.11
1764746574.396658,1.59
1764746574.402918,1.45
1764746574.409276,1.34
1764746574.4155142,1.5
1764746574.421759,1.51
1764746574.427994,1.54
1764746574.434228,1.52
1764746574.440446,1.54
1764746574.446674,1.63
1764746574.453002,1.55
1764746574.459152,1.58
1764746574.4653828,1.66
1764746574.4716349,1.62
1764746574.477951,1.71
1764746574.484158,1.7
1764746574.4905002,1.71
1764746574.496675,1.82
1764746574.503057,1.73
1764746574.5091982,1.78
1764746574.515373,1.86
1764746574.52177,1.86
1764746574.527893,1.98
1764746574.5342011,1.95
1764746574.5405009,1.95
1764746574.546658,2.05
1764746574.552932,1.94
1764746574.5591738,1.97
1764746574.5655448,2.04
1764746574.571858,1.96
1764746574.577906,1.99
1764746574.58418,1.94
1764746574.59085,1.91
1764746574.5966442,2.0
1764746574.602875,1.91
1764746574.609123,1.96
1764746574.615336,1.97
1764746574.6216478,1.88
1764746574.627837,1.95
1764746574.634303,1.95
1764746574.640469,1.88
1764746574.646697,1.96
1764746574.652873,1.9
1764746574.659101,1.88
1764746574.665335,1.88
1764746574.671628,1.8
1764746574.6778738,1.9
1764746574.684164,1.87
1764746574.6903849,1.88
1764746574.696589,1.98
1764746574.702921,1.96
1764746574.7092211,1.99
1764746574.715334,2.07
1764746574.721608,2.08
1764746574.727796,2.17
1764746574.7340748,2.08
1764746574.7403772,2.03
1764746574.746586,2.12
1764746574.752823,1.91
1764746574.759125,1.82
1764746574.765339,1.89
1764746574.771725,1.82
1764746574.7780008,1.85
1764746574.784193,1.81
1764746574.790552,1.79
1764746574.79668,1.87
1764746574.802815,1.79
1764746574.809108,1.78
1764746574.815307,1.8
1764746574.821564,1.69
1764746574.827804,1.72
1764746574.8341172,1.8
1764746574.840437,2.41
1764746574.846627,3.15
1764746574.8529322,3.15
1764746574.859044,3.08
1764746574.865319,1.69
1764746574.871653,0.98
1764746574.877837,1.73
1764746574.8841112,1.91
1764746574.890482,1.63
1764746574.906763,1.68
1764746574.90741,1.74
1764746574.911835,1.8
1764746574.937781,1.76
1764746574.940473,1.75
1764746574.9406312,1.92
1764746574.9454432,1.89
1764746574.94566,1.86
1764746574.947436,1.98
1764746574.957877,1.92
1764746574.959433,1.95
1764746574.970391,2.03
1764746574.972168,1.98
1764746574.977768,2.04
1764746574.984125,2.01
1764746574.990753,2.04
1764746574.9966998,2.17
1764746575.002948,2.1
1764746575.009133,2.17
1764746575.015318,2.23
1764746575.021651,2.18
1764746575.027919,2.29
1764746575.0340328,2.23
1764746575.040323,2.22
1764746575.04685,2.29
1764746575.05293,2.17
1764746575.059235,2.25
1764746575.065279,2.29
1764746575.071579,2.16
1764746575.077827,2.19
1764746575.084128,2.15
1764746575.090326,2.12
1764746575.096566,2.21
1764746575.102889,2.14
1764746575.109023,2.15
1764746575.115228,2.17
1764746575.121475,2.13
1764746575.127715,2.22
1764746575.1341069,2.14
1764746575.140351,2.11
1764746575.146516,2.21
1764746575.1528478,2.12
1764746575.159095,2.09
1764746575.165223,2.14
1764746575.1715431,2.13
1764746575.1777952,2.25
1764746575.184093,2.23
1764746575.190376,2.19
1764746575.196594,2.29
1764746575.202842,2.36
1764746575.209019,2.46
1764746575.2152152,2.39
1764746575.221522,2.24
1764746575.227838,2.34
1764746575.2340128,2.16
1764746575.2402718,1.98
1764746575.2465868,2.05
1764746575.252747,1.96
1764746575.2590022,1.97
1764746575.2652302,2.01
1764746575.271517,1.95
1764746575.277766,2.01
1764746575.2840471,1.97
1764746575.290263,1.96
1764746575.296478,2.04
1764746575.3027892,1.9
1764746575.3089511,1.91
1764746575.3151958,2.02
1764746575.321701,2.5
1764746575.327822,3.15
1764746575.334017,3.16
1764746575.340554,3.15
1764746575.346591,2.69
1764746575.352812,1.25
1764746575.358985,1.49
1764746575.3651872,2.13
1764746575.371566,1.93
1764746575.37781,1.77
1764746575.384021,1.88
1764746575.390634,1.94
1764746575.396569,1.91
1764746575.402845,1.86
1764746575.409033,1.99
1764746575.415173,1.99
1764746575.421459,1.9
1764746575.4277592,2.02
1764746575.433992,2.02
1764746575.440195,2.01
1764746575.446442,2.08
1764746575.4527528,2.01
1764746575.458909,2.11
1764746575.465163,2.14
1764746575.47155,2.04
1764746575.477847,2.15
1764746575.483983,2.17
1764746575.490258,2.2
1764746575.496472,2.26
1764746575.5027132,2.22
1764746575.509026,2.29
1764746575.5152771,2.29
1764746575.521592,2.25
1764746575.527696,2.29
1764746575.533909,2.18
1764746575.540237,2.17
1764746575.546496,2.19
1764746575.552774,2.07
1764746575.558889,2.09
1764746575.565291,2.12
1764746575.5716128,2.04
1764746575.577842,2.09
1764746575.583987,2.05
1764746575.590406,2.07
1764746575.596537,2.11
1764746575.602728,2.0
1764746575.6089852,2.07
1764746575.615249,2.06
1764746575.621585,1.97
1764746575.627765,2.07
1764746575.634023,2.0
1764746575.640247,1.97
1764746575.646501,2.01
1764746575.652735,1.93
1764746575.658945,2.02
1764746575.665154,2.08
1764746575.671547,2.04
1764746575.6778162,2.1
1764746575.6840131,2.13
1764746575.6902442,2.2
1764746575.6964102,2.21
1764746575.70266,2.05
1764746575.70897,2.12
1764746575.71516,2.05
1764746575.721424,1.78
1764746575.727693,1.81
1764746575.734046,1.78
1764746575.7401989,1.74
1764746575.746458,1.78
1764746575.752685,1.69
1764746575.758892,1.74
1764746575.765145,1.75
1764746575.771519,1.68
1764746575.777638,1.76
1764746575.7839072,1.66
1764746575.790677,1.63
1764746575.796523,1.77
1764746575.8027132,2.03
1764746575.808866,2.91
1764746575.8151731,3.15
1764746575.821434,3.14
1764746575.827742,2.32
1764746575.833928,0.97
1764746575.840149,1.23
1764746575.846364,1.79
1764746575.852727,1.59
1764746575.8589098,1.51
1764746575.865118,1.57
1764746575.871543,1.6
1764746575.877677,1.68
1764746575.8839538,1.58
1764746575.890122,1.59
1764746575.896383,1.7
1764746575.9026291,1.64
1764746575.909009,1.68
1764746575.915136,1.71
1764746575.921431,1.68
1764746575.927553,1.78
1764746575.933845,1.72
1764746575.940043,1.72
1764746575.946354,1.86
1764746575.952574,1.81
1764746575.958784,1.85
1764746575.9651031,1.89
1764746575.9715369,1.86
1764746575.977721,1.96
1764746575.9838731,1.91
1764746575.99131,1.93
1764746575.996425,2.02
1764746576.002652,1.9
1764746576.008846,1.92
1764746576.015169,1.95
1764746576.022298,1.89
1764746576.027648,1.96
1764746576.03387,1.88
1764746576.0403352,1.86
1764746576.046365,1.92
1764746576.052756,1.8
1764746576.0595598,1.79
1764746576.065187,1.77
1764746576.072793,1.77
1764746576.078,1.88
1764746576.083976,1.77
1764746576.090213,1.77
1764746576.096479,1.83
1764746576.102828,1.76
1764746576.109058,1.84
1764746576.115173,1.82
1764746576.121388,1.72
1764746576.127619,1.81
1764746576.1338549,1.75
1764746576.140018,1.74
1764746576.146258,1.85
1764746576.152535,1.88
1764746576.158825,1.9
1764746576.165087,1.87
1764746576.1721642,1.96
1764746576.177571,2.1
1764746576.183866,1.94
1764746576.190058,1.88
1764746576.196237,1.96
1764746576.2026188,1.74
1764746576.208884,1.61
1764746576.2150972,1.64
1764746576.228535,1.59
1764746576.2288,1.6
1764746576.2338629,1.51
1764746576.240132,1.55
1764746576.246446,1.66
1764746576.252576,1.54
1764746576.259148,1.62
1764746576.265182,1.62
1764746576.2714,1.47
1764746576.277625,1.55
1764746576.283885,1.62
1764746576.290056,2.21
1764746576.296836,3.12
1764746576.302665,3.13
1764746576.308907,2.71
1764746576.315097,1.3
1764746576.321353,0.85
1764746576.327539,1.45
1764746576.333909,1.53
1764746576.3400772,1.35
1764746576.3463948,1.39
1764746576.352695,1.44
1764746576.358786,1.52
1764746576.36499,1.49
1764746576.373038,1.44
1764746576.377693,1.57
1764746576.3837628,1.51
1764746576.390167,1.52
1764746576.396236,1.58
1764746576.402456,1.53
1764746576.408837,1.61
1764746576.415083,1.59
1764746576.421321,1.55
1764746576.427487,1.66
1764746576.4337769,1.62
1764746576.439987,1.65
1764746576.4462888,1.74
1764746576.452548,1.68
1764746576.458761,1.77
1764746576.46504,1.81
1764746576.471276,1.77
1764746576.47761,1.83
1764746576.483893,1.75
1764746576.490093,1.76
1764746576.496203,1.82
1764746576.5025558,1.71
1764746576.508845,1.72
1764746576.515132,1.72
1764746576.5212271,1.67
1764746576.527518,1.69
1764746576.53378,1.58
1764746576.5399418,1.6
1764746576.546162,1.63
1764746576.553206,1.55
1764746576.5587468,1.62
1764746576.565071,1.6
1764746576.571262,1.52
1764746576.577451,1.64
1764746576.583723,1.6
1764746576.590015,1.56
1764746576.67713,1.57
1764746576.677409,1.53
1764746576.7018108,1.59
1764746576.702077,1.57
1764746576.702315,1.51
1764746576.7025778,1.57
1764746576.7028632,1.58
1764746576.70316,1.65
1764746576.712449,1.67
1764746576.716485,1.61
1764746576.716896,1.81
1764746576.717621,1.89
1764746576.717862,1.75
1764746576.718405,1.77
1764746576.7190368,1.74
1764746576.719586,1.65
1764746576.719892,1.52
1764746576.720332,1.4
1764746576.72062,1.54
1764746576.7211342,1.47
1764746576.7214122,1.29
1764746576.727791,1.44
1764746576.7337952,1.43
1764746576.740051,1.42
1764746576.7464,1.44
1764746576.7526631,1.39
1764746576.758791,1.43
1764746576.765099,1.38
1764746576.771402,1.44
1764746576.77856,2.0
1764746576.8022048,2.81
1764746576.8024802,3.1
1764746576.802707,2.7
1764746576.802929,1.3
1764746576.810766,0.78
1764746576.8171608,1.3
1764746576.823308,1.48
1764746576.830952,1.36
1764746576.8390558,1.24
1764746576.840149,1.36
1764746576.84623,1.4
1764746576.852646,1.31
1764746576.858819,1.42
1764746576.8650398,1.44
1764746576.8713212,1.39
1764746576.877462,1.49
1764746576.884035,1.44
1764746576.889952,1.45
1764746576.896239,1.52
1764746576.902545,1.45
1764746576.9087858,1.52
1764746576.914925,1.51
1764746576.921298,1.48
1764746576.9274,1.6
1764746576.933751,1.6
1764746576.939965,1.64
1764746576.946162,1.68
1764746576.95238,1.66
1764746576.95872,1.78
1764746576.965296,1.77
1764746576.971296,1.72
1764746576.977422,1.76
1764746576.983755,1.7
1764746576.98991,1.7
1764746576.996219,1.7
1764746577.0024362,1.59
1764746577.0088372,1.64
1764746577.014974,1.61
1764746577.0211918,1.57
1764746577.027355,1.62
1764746577.033708,1.55
1764746577.039962,1.6
1764746577.046103,1.61
1764746577.052453,1.51
1764746577.0587149,1.61
1764746577.064878,1.6
1764746577.071724,1.52
1764746577.0773928,1.61
1764746577.0836852,1.57
1764746577.089864,1.55
1764746577.096124,1.57
1764746577.102515,1.47
1764746577.108581,1.52
1764746577.114944,1.51
1764746577.121943,1.46
1764746577.127406,1.63
1764746577.133613,1.65
1764746577.140032,1.64
1764746577.146134,1.74
1764746577.152561,1.8
1764746577.158895,1.86
1764746577.1649191,1.78
1764746577.175768,1.75
1764746577.177336,1.77
1764746577.184011,1.49
1764746577.1904068,1.43
1764746577.196152,1.49
1764746577.202361,1.35
1764746577.2086048,1.39
1764746577.2149298,1.4
1764746577.221215,1.37
1764746577.22733,1.48
1764746577.23363,1.4
1764746577.2399628,1.37
1764746577.246111,1.44
1764746577.252694,1.31
1764746577.258646,1.38
1764746577.264828,1.57
1764746577.271138,2.19
1764746577.277358,3.05
1764746577.283587,3.04
1764746577.28995,2.27
1764746577.29603,0.94
1764746577.302399,0.77
1764746577.308646,1.44
1764746577.314892,1.43
1764746577.321095,1.19
1764746577.327382,1.28
1764746577.333558,1.29
1764746577.340197,1.3
1764746577.345995,1.35
1764746577.352396,1.33
1764746577.3586078,1.43
1764746577.364945,1.41
1764746577.3711538,1.37
1764746577.377292,1.46
1764746577.383592,1.42
1764746577.3898811,1.47
1764746577.396107,1.51
1764746577.4022489,1.44
1764746577.408725,1.54
1764746577.414829,1.53
1764746577.421142,1.52
1764746577.427485,1.64
1764746577.433713,1.6
1764746577.43979,1.65
1764746577.446125,1.71
1764746577.4522638,1.69
1764746577.458561,1.79
1764746577.4648352,1.72
1764746577.471176,1.63
1764746577.477296,1.73
1764746577.483672,1.65
1764746577.489811,1.65
1764746577.496085,1.65
1764746577.502283,1.55
1764746577.508576,1.63
1764746577.5148082,1.61
1764746577.52104,1.57
1764746577.527313,1.62
1764746577.533799,1.54
1764746577.539814,1.59
1764746577.546022,1.64
1764746577.5523882,1.57
1764746577.558517,1.64
1764746577.564826,1.61
1764746577.5710342,1.57
1764746577.5774431,1.65
1764746577.58356,1.55
1764746577.5898051,1.58
1764746577.596019,1.62
1764746577.602347,1.55
1764746577.60852,1.64
1764746577.614808,1.61
1764746577.621779,1.66
1764746577.627285,1.82
1764746577.633767,1.7
1764746577.6397529,1.76
1764746577.6461382,1.96
1764746577.65227,1.87
1764746577.6585531,1.82
1764746577.6647308,1.8
1764746577.671061,1.74
1764746577.677414,1.63
1764746577.6836202,1.46
1764746577.690181,1.52
1764746577.69608,1.55
1764746577.7023418,1.44
1764746577.708525,1.52
1764746577.714844,1.47
1764746577.7210891,1.5
1764746577.7271922,1.61
1764746577.733629,1.47
1764746577.739777,1.45
1764746577.746063,1.5
1764746577.752169,1.45
1764746577.758513,1.74
1764746577.76478,2.48
1764746577.771918,3.11
1764746577.777356,3.05
1764746577.7836611,2.04
1764746577.7897542,0.88
1764746577.7959292,1.12
1764746577.802288,1.48
1764746577.808518,1.48
1764746577.814764,1.33
1764746577.82101,1.36
1764746577.827322,1.49
1764746577.8335848,1.38
1764746577.839953,1.44
1764746577.846127,1.51
1764746577.852484,1.43
1764746577.8586812,1.52
1764746577.86479,1.52
1764746577.871021,1.53
1764746577.87729,1.6
1764746577.883644,1.5
