timestamp,ecg_value
1764746522.539235,1.84
1764746522.545525,1.06
1764746522.551724,1.24
1764746522.558096,1.54
1764746522.5642722,1.0
1764746522.570608,0.87
1764746522.5773592,1.17
1764746522.582942,1.15
1764746522.589229,0.98
1764746522.595559,0.83
1764746522.601707,0.98
1764746522.607965,1.42
1764746522.6141682,1.75
1764746522.620578,2.07
1764746522.6267478,2.27
1764746522.633099,2.39
1764746522.639207,2.43
1764746522.645473,2.35
1764746522.651692,2.21
1764746522.657983,2.26
1764746522.664232,2.3
1764746522.67046,2.21
1764746522.676897,2.23
1764746522.683014,2.22
1764746522.689183,2.11
1764746522.695549,1.95
1764746522.701727,1.67
1764746522.7079449,1.7
1764746522.714232,1.7
1764746522.720816,1.4
1764746522.726884,1.26
1764746522.7330492,1.16
1764746522.7392168,1.44
1764746522.745784,1.72
1764746522.751673,1.72
1764746522.758143,1.88
1764746522.764195,2.23
1764746522.7705832,2.37
1764746522.7767448,2.31
1764746522.782989,2.2
1764746522.7891572,1.94
1764746522.795418,1.86
1764746522.801808,1.78
1764746522.808206,1.53
1764746522.814251,1.47
1764746522.820458,1.58
1764746522.82679,1.67
1764746522.8329248,1.47
1764746522.839212,1.36
1764746522.845483,1.57
1764746522.851636,1.82
1764746522.857932,2.04
1764746522.864171,2.05
1764746522.8704152,2.09
1764746522.876713,1.9
1764746522.88306,1.5
1764746522.889157,1.44
1764746522.895447,1.47
1764746522.901679,1.27
1764746522.90791,1.14
1764746522.914143,1.13
1764746522.920456,1.09
1764746522.926752,1.02
1764746522.9329689,0.96
1764746522.939243,0.98
1764746522.945476,0.92
1764746522.9516008,0.81
1764746522.957849,0.84
1764746522.964177,0.92
1764746522.970434,1.53
1764746522.976998,2.24
1764746522.982972,2.16
1764746522.989412,1.55
1764746522.9955578,0.45
1764746523.00175,0.28
1764746523.007905,0.91
1764746523.0141451,1.11
1764746523.0203688,1.02
1764746523.026786,1.02
1764746523.032884,1.16
1764746523.0391612,1.38
1764746523.045352,1.36
1764746523.051635,1.24
1764746523.057996,1.21
1764746523.064105,1.26
1764746523.070359,1.48
1764746523.076811,1.62
1764746523.0829928,1.4
1764746523.0891578,1.33
1764746523.095553,1.34
1764746523.1016068,1.55
1764746523.107924,1.69
1764746523.114141,1.17
1764746523.1203892,1.14
1764746523.126871,1.16
1764746523.132861,0.91
1764746523.139062,1.03
1764746523.145484,1.19
1764746523.15159,0.92
1764746523.15793,0.9
1764746523.1641212,0.97
1764746523.170371,0.73
1764746523.176672,0.63
1764746523.1832662,0.98
1764746523.189295,1.27
1764746523.19551,1.35
1764746523.201652,1.44
1764746523.2080362,1.78
1764746523.214354,2.02
1764746523.220381,2.03
1764746523.2278929,2.08
1764746523.232976,1.81
1764746523.23914,1.25
1764746523.2453718,0.86
1764746523.251696,1.16
1764746523.257938,1.67
1764746523.264153,1.63
1764746523.2702742,1.41
1764746523.276671,1.65
1764746523.282874,1.77
1764746523.289151,1.66
1764746523.295407,1.88
1764746523.30161,2.28
1764746523.3078349,2.43
1764746523.314046,2.39
1764746523.3204238,2.3
1764746523.3266392,2.19
1764746523.332864,1.76
1764746523.3391092,1.5
1764746523.345328,1.57
1764746523.351637,1.42
1764746523.35791,1.13
1764746523.3641012,0.69
1764746523.370334,0.79
1764746523.3768718,1.09
1764746523.382832,1.0
1764746523.389045,1.13
1764746523.395427,1.32
1764746523.401637,1.49
1764746523.40786,1.68
1764746523.414216,1.58
1764746523.420314,1.66
1764746523.42672,1.7
1764746523.432765,1.56
1764746523.4390662,1.93
1764746523.445542,2.55
1764746523.451711,2.4
1764746523.45782,2.05
1764746523.4642172,0.94
1764746523.470366,0.28
1764746523.476648,0.57
1764746523.482769,0.74
1764746523.489037,0.66
1764746523.495297,0.65
1764746523.501569,0.6
1764746523.507852,0.6
1764746523.514103,0.63
1764746523.520296,0.64
1764746523.526582,0.64
1764746523.532755,0.68
1764746523.539049,0.78
1764746523.5453062,0.98
1764746523.551575,1.05
1764746523.557792,1.29
1764746523.5639648,1.32
1764746523.570261,1.29
1764746523.576559,1.5
1764746523.582755,1.57
1764746523.58907,1.69
1764746523.595239,1.86
1764746523.601536,1.91
1764746523.607789,2.01
1764746523.614099,2.19
1764746523.62028,2.38
1764746523.626608,1.98
1764746523.63274,1.42
1764746523.639159,1.5
1764746523.645358,1.71
1764746523.651521,1.24
1764746523.657863,1.18
1764746523.664084,1.33
1764746523.670364,1.15
1764746523.676995,0.49
1764746523.682784,0.34
1764746523.6891,1.09
1764746523.695214,1.49
1764746523.701591,1.36
1764746523.7077792,1.41
1764746523.714051,1.53
1764746523.720233,1.64
1764746523.7269351,1.82
1764746523.732793,1.87
1764746523.7389572,1.98
1764746523.7452369,2.07
1764746523.7515311,1.97
1764746523.757775,1.96
1764746523.7640488,1.98
1764746523.7702668,1.81
1764746523.776659,1.62
1764746523.78272,1.69
1764746523.78911,1.7
1764746523.795291,1.54
1764746523.801549,1.34
1764746523.8078022,1.48
1764746523.8141062,1.61
1764746523.820247,1.9
1764746523.8266082,2.38
1764746523.832709,2.28
1764746523.839026,2.06
1764746523.8451788,1.98
1764746523.8514729,1.93
1764746523.8577302,1.72
1764746523.8639228,1.56
1764746523.870204,1.43
1764746523.876512,1.2
1764746523.882752,0.96
1764746523.888973,0.9
1764746523.895226,1.04
1764746523.9015849,1.58
1764746523.931733,2.71
1764746523.933588,3.16
1764746523.954378,3.15
1764746523.9816709,2.65
1764746523.987029,1.78
1764746523.98717,1.78
1764746523.987266,1.86
1764746523.987359,1.41
1764746523.9874508,1.16
1764746523.9875462,1.24
1764746523.9876428,1.16
1764746523.987968,1.08
1764746523.988384,0.94
1764746523.988998,0.96
1764746523.995328,0.97
1764746524.00267,0.83
1764746524.0133052,0.85
1764746524.0143292,0.79
1764746524.0208158,0.72
1764746524.02794,0.89
1764746524.0327191,0.84
1764746524.038959,0.91
1764746524.0452769,1.13
1764746524.0515058,1.29
1764746524.05775,1.51
1764746524.0640588,1.4
1764746524.0701702,1.42
1764746524.076515,1.72
1764746524.08272,1.72
1764746524.088962,1.62
1764746524.0952,1.9
1764746524.10155,2.03
1764746524.10769,2.01
1764746524.1138592,1.98
1764746524.1202922,2.26
1764746524.127817,2.27
1764746524.13266,2.02
1764746524.1389,2.01
1764746524.145212,2.17
1764746524.151435,2.21
1764746524.157621,2.27
1764746524.163908,2.1
1764746524.170187,2.06
1764746524.176975,2.05
1764746524.18265,1.76
1764746524.188879,1.37
1764746524.195315,1.13
1764746524.201399,0.93
1764746524.2077088,0.78
1764746524.213972,0.7
1764746524.220233,0.72
1764746524.227087,1.02
1764746524.2327108,1.28
1764746524.239001,1.59
1764746524.245186,2.15
1764746524.251445,2.45
1764746524.25773,2.55
1764746524.263912,2.64
1764746524.27013,2.41
1764746524.276779,1.95
1764746524.282725,1.56
1764746524.288919,1.18
1764746524.2951522,1.59
1764746524.301458,1.42
1764746524.3077,0.61
1764746524.313889,0.83
1764746524.320242,1.43
1764746524.326405,1.7
1764746524.332814,1.78
1764746524.3389251,1.94
1764746524.345116,2.12
1764746524.3514292,2.11
1764746524.3577302,2.35
1764746524.363906,3.13
1764746524.370324,3.16
1764746524.376644,3.17
1764746524.382536,3.17
1764746524.388832,3.16
1764746524.395188,2.37
1764746524.401427,1.23
1764746524.4075918,1.74
1764746524.41387,2.1
1764746524.42006,1.66
1764746524.426451,1.44
1764746524.432626,1.5
1764746524.438874,1.71
1764746524.445163,1.64
1764746524.4513102,1.52
1764746524.457555,1.65
1764746524.4637702,1.83
1764746524.470178,2.08
1764746524.47649,2.16
1764746524.4826298,2.1
1764746524.488845,2.32
1764746524.4950268,2.38
1764746524.501332,2.03
1764746524.507693,1.96
1764746524.513741,1.97
1764746524.520213,1.74
1764746524.52646,1.66
1764746524.532641,1.62
1764746524.538949,1.59
1764746524.5450492,1.52
1764746524.55134,1.49
1764746524.557649,1.41
1764746524.563798,1.29
1764746524.5700831,1.37
1764746524.576402,1.46
1764746524.582603,1.36
1764746524.588883,1.42
1764746524.594998,1.46
1764746524.601296,1.32
1764746524.607556,1.41
1764746524.613722,1.57
1764746524.6200352,1.69
1764746524.626408,1.84
1764746524.6325288,1.94
1764746524.6388218,2.1
1764746524.645213,2.12
1764746524.651286,2.08
1764746524.657526,2.27
1764746524.663713,2.32
1764746524.670103,2.23
1764746524.676504,2.24
1764746524.6825411,2.16
1764746524.688826,2.42
1764746524.695124,2.66
1764746524.7013178,3.0
1764746524.7075782,3.04
1764746524.713721,2.66
1764746524.720073,2.32
1764746524.726603,2.13
1764746524.732533,1.95
1764746524.7388391,1.72
1764746524.745018,1.35
1764746524.751212,1.11
1764746524.757549,1.07
1764746524.763849,1.03
1764746524.770077,1.09
1764746524.776394,1.31
1764746524.782582,1.56
1764746524.788843,1.87
1764746524.795008,2.16
1764746524.801505,2.39
1764746524.807613,2.63
1764746524.813896,2.59
1764746524.8200371,2.43
1764746524.826275,2.96
1764746524.832475,3.16
1764746524.838805,3.16
1764746524.844978,3.14
1764746524.8511648,1.72
1764746524.857522,0.68
1764746524.863727,1.46
1764746524.870007,1.84
1764746524.8763,1.68
1764746524.88242,1.59
1764746524.888735,1.87
1764746524.8949811,2.28
1764746524.901153,2.44
1764746524.907593,2.52
1764746524.913727,2.44
1764746524.920047,2.27
1764746524.9262688,2.3
1764746524.9324758,2.35
1764746524.938762,2.28
1764746524.9449852,2.25
1764746524.951329,2.23
1764746524.9576268,2.24
1764746524.9636369,2.07
1764746524.970093,1.99
1764746524.976369,2.0
1764746524.982502,1.84
1764746524.988887,1.96
1764746524.995313,2.04
1764746525.0013492,2.01
1764746525.0075672,2.07
1764746525.0138829,2.04
1764746525.020053,2.31
1764746525.0262249,2.52
1764746525.032444,2.42
1764746525.03867,2.49
1764746525.045036,2.62
1764746525.051188,2.47
1764746525.0574982,2.29
1764746525.063703,2.21
1764746525.069985,2.03
1764746525.076342,1.91
1764746525.0825229,1.86
1764746525.088945,1.84
1764746525.094906,1.77
1764746525.101295,1.52
1764746525.107582,1.45
1764746525.113762,1.52
1764746525.1199172,1.44
1764746525.126228,1.46
1764746525.132394,1.57
1764746525.138705,1.74
1764746525.144924,1.82
1764746525.151229,1.7
1764746525.157674,1.86
1764746525.1636229,1.95
1764746525.170048,1.89
1764746525.176246,1.93
1764746525.182358,1.84
1764746525.188799,1.79
1764746525.1949708,1.76
1764746525.201192,1.68
1764746525.2075222,1.77
1764746525.213753,1.69
1764746525.219975,1.72
1764746525.226294,1.94
1764746525.232416,1.88
1764746525.2386491,1.92
1764746525.244962,1.98
1764746525.251091,1.97
1764746525.257471,2.09
1764746525.26377,1.89
1764746525.270056,1.75
1764746525.276196,2.03
1764746525.282395,2.47
1764746525.288743,3.14
1764746525.2949178,3.15
1764746525.301245,3.03
1764746525.3076868,1.73
1764746525.313628,0.52
1764746525.319979,0.78
1764746525.326298,1.09
1764746525.332389,0.75
1764746525.338739,0.59
1764746525.344979,0.86
1764746525.3511791,0.85
1764746525.357491,0.96
1764746525.3636868,1.23
1764746525.369912,1.41
1764746525.376317,1.6
1764746525.382423,1.72
1764746525.3887548,1.8
1764746525.394903,1.87
1764746525.40117,1.91
1764746525.40748,2.04
1764746525.413727,2.03
1764746525.4201112,1.93
1764746525.426366,1.98
1764746525.4325252,1.81
1764746525.438739,1.96
1764746525.444939,2.36
1764746525.4511209,2.12
1764746525.457429,1.96
1764746525.463673,2.21
1764746525.469891,2.18
1764746525.476212,2.15
1764746525.482372,2.14
1764746525.488634,2.07
1764746525.494841,2.04
1764746525.5011358,1.98
1764746525.507531,1.85
1764746525.51365,1.82
1764746525.519906,1.77
1764746525.526201,1.76
1764746525.532424,1.73
1764746525.5386271,1.77
1764746525.544855,1.77
1764746525.551125,1.74
1764746525.5573928,1.86
1764746525.5636811,1.83
1764746525.5698402,1.79
1764746525.576126,1.84
1764746525.587098,1.84
1764746525.606954,1.95
1764746525.607151,1.93
1764746525.616354,1.91
1764746525.624853,1.97
1764746525.630552,1.86
1764746525.630641,1.96
1764746525.630702,2.14
1764746525.632867,1.95
1764746525.643137,1.9
1764746525.6469371,1.87
1764746525.653273,1.61
1764746525.657398,1.47
1764746525.663553,1.36
1764746525.669997,1.33
1764746525.6761448,1.29
1764746525.682316,1.11
1764746525.688632,1.14
1764746525.695186,1.18
1764746525.701115,1.12
1764746525.707465,1.1
1764746525.713598,1.01
1764746525.719868,0.85
1764746525.7261848,0.8
1764746525.7324648,0.85
1764746525.738553,1.06
1764746525.744899,1.94
1764746525.751054,2.6
1764746525.757673,2.52
1764746525.763511,1.74
1764746525.7699652,0.51
1764746525.776108,0.64
1764746525.782357,1.23
1764746525.7885702,1.23
1764746525.794775,1.18
1764746525.801107,1.34
1764746525.807273,1.47
1764746525.813486,1.39
1764746525.819795,1.24
1764746525.826329,1.25
1764746525.832337,1.26
1764746525.8385222,1.25
1764746525.844815,1.1
1764746525.851039,0.98
1764746525.857388,1.18
1764746525.8635678,1.26
1764746525.869826,1.17
1764746525.876079,1.2
1764746525.882247,1.19
1764746525.888695,1.29
1764746525.8948128,1.45
1764746525.901013,1.44
1764746525.907525,1.45
1764746525.913562,1.49
1764746525.919752,1.64
1764746525.926038,1.85
1764746525.932262,1.92
1764746525.938544,2.21
1764746525.944767,2.16
1764746525.951084,1.87
1764746525.957309,1.91
1764746525.96341,1.88
1764746525.969728,1.66
1764746525.9759831,1.62
1764746525.98223,1.45
1764746525.988516,1.35
1764746525.994751,1.28
1764746526.000948,1.18
1764746526.007583,1.3
1764746526.0134752,1.16
1764746526.0197198,0.63
1764746526.026009,0.47
1764746526.032287,0.6
1764746526.038452,0.52
1764746526.044804,0.4
1764746526.050978,0.54
1764746526.057644,0.95
1764746526.0635478,0.99
1764746526.069682,0.86
1764746526.075969,1.08
1764746526.082192,1.35
1764746526.088597,1.3
1764746526.094754,1.16
1764746526.101065,1.13
1764746526.10734,1.14
1764746526.113589,0.92
1764746526.119702,0.68
1764746526.126036,0.65
1764746526.132239,0.63
1764746526.138506,0.72
1764746526.1447349,0.77
1764746526.1509771,0.77
1764746526.157452,0.75
1764746526.163488,0.87
1764746526.169709,1.07
1764746526.17596,1.17
1764746526.182243,1.05
1764746526.188478,1.0
1764746526.1946712,1.25
1764746526.201022,1.86
1764746526.207277,2.6
1764746526.213469,2.74
1764746526.219696,1.79
1764746526.225953,0.45
1764746526.232175,0.4
1764746526.238562,0.92
1764746526.244629,0.82
1764746526.251164,0.45
1764746526.258191,0.52
1764746526.263446,0.64
1764746526.2696698,0.55
1764746526.275968,0.51
1764746526.282156,0.49
1764746526.2886882,0.49
1764746526.294696,0.53
1764746526.3009129,0.53
1764746526.307371,0.65
1764746526.313503,0.87
1764746526.319815,1.03
1764746526.326027,0.93
1764746526.332162,0.81
1764746526.338392,0.99
1764746526.3446112,1.28
1764746526.350882,1.33
1764746526.357525,1.4
1764746526.363363,1.62
1764746526.369683,1.52
1764746526.375982,1.34
1764746526.3822331,1.16
1764746526.388959,0.8
1764746526.394626,0.51
1764746526.4008908,0.45
1764746526.407603,0.82
1764746526.413362,0.82
1764746526.419622,0.63
1764746526.425936,0.62
1764746526.432169,0.54
1764746526.438456,0.65
1764746526.4446988,0.92
1764746526.451023,0.93
1764746526.457213,1.05
1764746526.4633868,1.3
1764746526.469697,1.38
1764746526.475913,1.46
1764746526.4821708,1.5
1764746526.488588,1.52
1764746526.494587,1.62
1764746526.5009012,1.41
1764746526.507176,1.26
1764746526.513374,1.28
1764746526.519837,1.29
1764746526.5259252,1.19
1764746526.532428,0.95
1764746526.538408,1.2
1764746526.5447628,1.3
1764746526.5508869,1.1
1764746526.557636,1.24
1764746526.563317,1.43
1764746526.569721,1.19
1764746526.575943,1.16
1764746526.5820968,1.49
1764746526.5885272,1.26
1764746526.5946748,1.06
1764746526.600907,1.13
1764746526.6078248,1.24
1764746526.613392,1.22
1764746526.619628,1.1
1764746526.626038,1.13
1764746526.632141,1.06
1764746526.6383512,0.98
1764746526.644574,0.92
1764746526.650935,0.93
1764746526.657847,1.62
1764746526.663468,2.5
1764746526.669659,2.62
1764746526.675871,2.3
1764746526.682126,1.27
1764746526.688418,1.01
1764746526.694561,1.59
1764746526.700879,1.77
1764746526.7073011,1.69
1764746526.7133398,1.75
1764746526.71962,2.07
1764746526.7261791,2.2
1764746526.732112,1.92
1764746526.738406,1.8
1764746526.7445362,1.94
1764746526.750885,1.74
1764746526.757421,1.47
1764746526.763401,1.46
1764746526.769578,1.39
1764746526.775906,1.34
1764746526.782084,1.42
1764746526.788355,1.41
1764746526.794511,1.38
1764746526.800813,1.55
1764746526.807193,1.85
1764746526.813358,1.95
1764746526.819579,1.9
1764746526.825901,2.2
1764746526.832078,2.31
1764746526.838351,2.26
1764746526.844558,2.39
1764746526.850844,2.36
1764746526.85785,2.29
1764746526.863263,2.25
1764746526.86956,2.12
1764746526.875848,2.06
1764746526.8820071,1.93
1764746526.888337,1.84
1764746526.8945868,1.87
1764746526.900948,1.79
1764746526.9071229,1.78
1764746526.913324,1.71
1764746526.919534,1.66
1764746526.925848,1.85
1764746526.93213,1.93
1764746526.938276,1.82
1764746526.944507,1.88
1764746526.950773,2.03
1764746526.9572082,2.04
1764746526.963326,1.92
1764746526.969555,1.9
1764746526.975776,2.05
1764746526.981994,1.77
1764746526.9883242,1.49
1764746526.994539,1.66
1764746527.00081,1.62
1764746527.0071402,1.37
1764746527.013268,1.21
1764746527.019538,1.12
1764746527.025847,1.27
1764746527.032046,1.18
1764746527.038395,1.11
1764746527.044541,1.39
1764746527.050803,1.28
1764746527.057106,1.29
1764746527.065247,1.58
1764746527.069942,1.48
1764746527.0814662,1.3
1764746527.121879,1.34
1764746527.1225338,1.3
1764746527.124581,1.34
1764746527.129289,1.14
1764746527.133601,1.08
1764746527.133808,1.58
1764746527.133958,2.61
1764746527.134549,3.15
1764746527.134659,3.12
1764746527.140007,2.31
1764746527.144892,1.16
1764746527.1521358,1.22
1764746527.157082,1.55
1764746527.163327,1.52
1764746527.170165,1.43
1764746527.179536,1.58
1764746527.182514,1.64
1764746527.188258,1.54
1764746527.194548,1.52
1764746527.201104,1.6
1764746527.207055,1.67
1764746527.213449,1.57
1764746527.219553,1.44
1764746527.225899,1.44
1764746527.232081,1.48
1764746527.238281,1.43
1764746527.244537,1.56
1764746527.2508018,1.6
1764746527.257202,1.63
1764746527.263593,1.72
1764746527.2694578,1.77
1764746527.275846,1.76
1764746527.2818828,1.88
1764746527.288278,1.94
1764746527.294512,1.87
1764746527.3007371,1.72
1764746527.307059,1.84
1764746527.313175,1.9
1764746527.319503,1.68
1764746527.326066,1.69
1764746527.331851,1.81
1764746527.338142,1.67
1764746527.344598,1.65
1764746527.35082,1.7
1764746527.357014,1.74
1764746527.36316,1.77
1764746527.369503,1.66
1764746527.375629,1.61
1764746527.381921,1.72
1764746527.388244,1.78
1764746527.3944142,1.81
1764746527.400714,1.64
1764746527.407182,1.6
1764746527.413224,1.69
1764746527.419416,1.6
1764746527.425747,1.72
1764746527.43185,1.74
1764746527.4384582,1.63
1764746527.444442,1.78
1764746527.450743,1.85
1764746527.45727,1.97
1764746527.463437,2.0
1764746527.469488,1.82
1764746527.4757829,1.75
1764746527.481912,1.8
1764746527.4881558,1.6
1764746527.4944892,1.5
1764746527.50067,1.43
1764746527.507007,1.33
1764746527.513223,1.52
1764746527.519433,1.52
1764746527.5258298,1.41
1764746527.531844,1.45
1764746527.538225,1.59
1764746527.544404,1.62
1764746527.5507112,1.49
1764746527.55713,1.57
1764746527.563263,1.7
1764746527.569459,1.76
1764746527.5757031,2.46
1764746527.581828,3.15
1764746527.588265,3.15
1764746527.594444,3.11
1764746527.600765,1.93
1764746527.6070452,1.18
1764746527.613312,1.86
1764746527.61949,2.11
1764746527.625657,2.03
1764746527.631895,2.22
1764746527.638207,2.3
1764746527.644362,2.34
1764746527.65067,2.26
1764746527.6572192,2.39
1764746527.663193,2.49
1764746527.669395,2.31
1764746527.675613,2.23
1764746527.681825,2.2
1764746527.688247,2.16
1764746527.69446,2.21
1764746527.70073,2.16
1764746527.70741,2.15
1764746527.713139,2.15
1764746527.7194118,2.07
1764746527.725743,2.11
1764746527.731978,2.05
1764746527.738177,2.05
1764746527.744447,2.25
1764746527.7506702,2.2
1764746527.757081,2.14
1764746527.76321,2.13
1764746527.769401,2.09
1764746527.775584,2.1
1764746527.781829,2.0
1764746527.7882738,1.92
1764746527.794461,2.05
1764746527.800666,2.01
1764746527.807064,1.99
1764746527.813152,2.07
1764746527.8195672,2.05
1764746527.82558,2.07
1764746527.831844,2.1
1764746527.8381429,2.13
1764746527.844446,2.17
1764746527.850685,2.09
1764746527.856935,2.09
1764746527.863188,2.07
1764746527.869454,2.0
1764746527.87555,2.13
1764746527.881828,2.07
1764746527.88816,2.08
1764746527.894421,2.43
1764746527.9007628,2.33
1764746527.90708,2.25
1764746527.913078,2.44
1764746527.919281,2.56
1764746527.925685,2.66
1764746527.931781,2.43
1764746527.938129,2.31
1764746527.944288,2.35
1764746527.950565,2.14
1764746527.9571068,2.07
1764746527.963129,2.05
1764746527.9693031,1.96
1764746527.97553,2.07
1764746527.981792,1.98
1764746527.9880562,1.87
1764746527.994323,2.03
1764746528.0005708,1.93
1764746528.006882,1.93
1764746528.0131469,2.05
1764746528.01935,1.91
1764746528.02561,1.95
1764746528.031948,1.95
1764746528.038398,2.52
1764746528.044482,3.15
1764746528.050642,3.15
1764746528.0584471,3.13
1764746528.0632262,1.84
1764746528.06946,0.82
1764746528.075766,1.49
1764746528.081856,1.84
1764746528.088109,1.57
1764746528.094479,1.55
1764746528.100677,1.6
1764746528.10703,1.68
1764746528.113139,1.65
1764746528.119412,1.51
1764746528.125715,1.67
1764746528.131791,1.69
1764746528.1382022,1.58
1764746528.144364,1.64
1764746528.150635,1.53
1764746528.1580338,1.57
1764746528.163009,1.58
1764746528.169433,1.44
1764746528.175588,1.59
1764746528.1818008,1.63
1764746528.188245,1.56
1764746528.194274,1.64
1764746528.2005491,1.73
1764746528.2068648,1.74
1764746528.2131069,1.8
1764746528.219336,1.74
1764746528.225526,1.82
1764746528.231734,1.82
1764746528.238133,1.71
1764746528.2442749,1.82
1764746528.250592,1.73
1764746528.2568471,1.68
1764746528.263,1.69
1764746528.269324,1.66
1764746528.275548,1.75
1764746528.281748,1.73
1764746528.2882051,1.72
1764746528.29425,1.83
1764746528.300587,1.8
1764746528.306966,1.86
1764746528.313012,1.92
1764746528.319221,1.75
1764746528.325515,1.86
1764746528.331676,1.85
1764746528.3381371,1.82
1764746528.344325,1.91
1764746528.350564,1.81
1764746528.356904,1.81
1764746528.363009,1.92
1764746528.369291,1.8
1764746528.375506,1.81
1764746528.381689,1.88
1764746528.388157,1.85
1764746528.394364,1.83
1764746528.4005198,1.75
1764746528.406814,1.7
1764746528.413001,1.71
1764746528.419181,1.44
1764746528.42541,1.39
1764746528.43172,1.43
1764746528.4382238,1.3
1764746528.44428,1.28
1764746528.450467,1.24
1764746528.457076,1.23
1764746528.463039,1.23
1764746528.469256,1.15
1764746528.4755058,1.17
1764746528.481715,1.2
1764746528.488075,1.03
1764746528.494273,1.02
1764746528.500492,1.17
1764746528.507013,1.87
1764746528.512966,2.69
1764746528.519266,2.66
1764746528.5254982,1.97
1764746528.531731,0.6
1764746528.5381792,0.26
1764746528.544288,0.86
1764746528.550514,0.84
1764746528.556754,0.6
1764746528.562977,0.77
1764746528.5692549,0.81
1764746528.575489,0.83
1764746528.581674,0.85
1764746528.5882702,0.86
1764746528.5942578,0.93
1764746528.601581,0.87
1764746528.606786,0.93
1764746528.612968,1.0
1764746528.61937,0.94
1764746528.62547,1.04
1764746528.6317198,1.05
1764746528.6406531,0.97
1764746528.6442938,1.02
1764746528.782343,0.98
1764746528.7863522,1.05
1764746528.7865229,1.14
1764746528.786942,1.05
1764746528.787235,1.12
1764746528.787439,1.21
1764746528.788328,1.22
1764746528.788552,1.24
1764746528.7888708,1.15
1764746528.7891269,1.19
1764746528.7893262,1.26
1764746528.789519,1.1
1764746528.789713,1.18
1764746528.790108,1.23
1764746528.79046,1.2
1764746528.790621,1.29
1764746528.790739,1.19
1764746528.791053,1.2
1764746528.791269,1.27
1764746528.791458,1.17
1764746528.791657,1.23
1764746528.7920508,1.28
1764746528.7924511,1.22
1764746528.796166,1.31
1764746528.800426,1.25
1764746528.806714,1.25
1764746528.8129878,1.32
1764746528.8195572,1.22
1764746528.825527,1.34
1764746528.831682,1.41
1764746528.8379142,1.4
1764746528.84419,1.42
1764746528.8505018,1.39
1764746528.85668,1.57
1764746528.8632162,1.53
1764746528.869384,1.34
1764746528.8763871,1.43
1764746528.8816378,1.32
1764746528.893473,1.14
1764746528.894131,1.12
1764746528.916233,1.04
1764746528.916834,1.0
1764746528.918622,1.0
1764746528.927618,1.01
1764746528.928426,1.1
1764746528.9315689,1.02
1764746528.937902,1.09
1764746528.944118,1.17
1764746528.9505348,1.0
1764746528.956964,1.03
1764746528.962886,1.15
1764746528.96921,1.17
1764746528.975887,1.82
1764746528.9819689,2.57
1764746528.9880052,2.69
1764746528.994143,2.17
1764746529.000415,0.98
1764746529.00668,0.67
1764746529.012933,1.12
1764746529.0192032,1.19
1764746529.025409,1.14
1764746529.032041,1.1
1764746529.037914,1.22
1764746529.044207,1.23
1764746529.0504909,1.15
1764746529.056701,1.33
1764746529.062876,1.31
1764746529.069569,1.21
1764746529.075395,1.41
1764746529.081633,1.45
1764746529.0881898,1.39
1764746529.094143,1.47
1764746529.100401,1.43
1764746529.108267,1.58
1764746529.114843,1.66
1764746529.126463,1.47
1764746529.1266098,1.77
1764746529.1329951,1.83
1764746529.141152,1.7
1764746529.145208,1.81
1764746529.150429,1.95
1764746529.161417,2.03
1764746529.16725,1.91
1764746529.1761029,1.85
1764746529.176501,1.94
1764746529.192778,1.86
1764746529.193033,1.68
1764746529.19462,1.61
1764746529.202523,1.46
1764746529.21085,1.55
1764746529.2182982,1.47
1764746529.2238889,1.22
1764746529.2274618,1.27
1764746529.231606,1.32
1764746529.238065,1.26
1764746529.244117,1.27
1764746529.250338,1.24
1764746529.2567208,1.31
1764746529.262858,1.36
1764746529.26914,1.33
1764746529.275496,1.53
1764746529.281568,1.69
1764746529.287856,1.74
1764746529.2942002,1.88
1764746529.300271,1.92
1764746529.30669,2.07
1764746529.312793,2.26
1764746529.319096,2.25
1764746529.3253791,2.39
1764746529.331607,2.54
1764746529.338163,2.62
1764746529.344165,2.66
1764746529.350593,2.64
1764746529.356668,2.57
1764746529.3628612,2.44
1764746529.369088,2.18
1764746529.375377,2.3
1764746529.381622,2.18
1764746529.392278,1.98
1764746529.3964422,2.04
1764746529.400366,2.18
1764746529.406948,2.21
1764746529.412815,2.18
1764746529.419575,2.03
1764746529.425374,2.21
1764746529.431484,2.39
1764746529.438049,2.26
1764746529.445533,2.23
1764746529.451978,2.59
1764746529.4583411,3.16
1764746529.462982,3.16
1764746529.469573,3.16
1764746529.4753768,3.15
1764746529.4815738,2.17
1764746529.4878452,1.26
1764746529.4940732,1.89
1764746529.500326,2.02
1764746529.506636,1.8
1764746529.51283,1.77
1764746529.519171,1.69
1764746529.525335,1.76
1764746529.5315342,1.58
1764746529.53792,1.56
1764746529.544047,1.73
1764746529.550514,1.65
1764746529.556679,1.59
1764746529.5629718,1.65
1764746529.569068,1.6
1764746529.575288,1.7
1764746529.581501,1.75
1764746529.587857,1.78
1764746529.594033,1.8
1764746529.600311,1.81
1764746529.606549,1.81
1764746529.6127648,1.87
1764746529.619046,1.75
1764746529.62553,1.61
1764746529.6315038,1.58
1764746529.640219,1.59
1764746529.644019,1.65
1764746529.650269,1.53
1764746529.65672,1.45
1764746529.6632938,1.52
1764746529.668982,1.69
1764746529.6752949,1.81
1764746529.681587,1.76
1764746529.688131,1.69
1764746529.694034,1.98
1764746529.700285,2.01
1764746529.706512,1.86
1764746529.712756,1.93
1764746529.7190242,1.95
1764746529.725333,1.89
1764746529.731426,1.79
1764746529.737822,1.89
1764746529.74399,1.8
1764746529.7502432,1.67
1764746529.756479,1.75
1764746529.76275,1.79
1764746529.768969,1.7
1764746529.775195,1.81
1764746529.781599,1.98
1764746529.7878,2.01
1764746529.793848,2.17
1764746529.800184,2.37
1764746529.8066618,2.36
1764746529.8126771,2.6
1764746529.818917,2.44
1764746529.825153,2.32
1764746529.831469,2.29
1764746529.8383648,2.0
1764746529.843895,1.78
1764746529.850239,1.77
1764746529.856628,1.65
1764746529.862698,1.46
1764746529.868947,1.39
1764746529.875197,1.39
1764746529.881404,1.4
1764746529.888371,1.34
1764746529.893887,1.51
1764746529.900224,1.39
1764746529.906973,1.4
1764746529.9127638,1.61
1764746529.919448,1.5
1764746529.925204,1.64
1764746529.9314308,2.49
1764746529.939192,3.06
1764746529.9439108,2.79
1764746529.950218,1.67
1764746529.956983,0.63
1764746529.9627578,0.96
1764746529.969246,1.25
1764746529.975189,1.13
1764746529.9814122,0.99
1764746529.992268,1.26
1764746529.993948,1.52
1764746530.000302,1.32
1764746530.013078,1.38
1764746530.013374,1.57
1764746530.018904,1.52
1764746530.061862,1.6
1764746530.0636852,1.64
1764746530.064161,1.71
1764746530.064386,1.73
1764746530.064773,1.55
1764746530.065026,1.71
1764746530.065168,1.84
1764746530.069076,1.63
1764746530.078801,1.68
1764746530.081453,1.84
1764746530.1089122,1.91
1764746530.109289,1.87
1764746530.1095371,1.97
1764746530.109762,1.87
1764746530.112846,2.01
1764746530.1262028,2.04
1764746530.126399,1.91
1764746530.132476,1.86
1764746530.160002,1.78
1764746530.160984,1.79
1764746530.161252,1.67
1764746530.161708,1.65
1764746530.162656,1.75
1764746530.169325,1.58
1764746530.175176,1.67
1764746530.1814332,1.71
1764746530.18771,1.66
1764746530.1940851,1.77
1764746530.200162,1.72
1764746530.206401,1.78
1764746530.212587,1.86
1764746530.219061,1.67
1764746530.2250838,1.74
1764746530.231327,1.91
1764746530.239926,1.74
1764746530.243922,1.9
1764746530.250206,2.16
1764746530.25721,2.2
1764746530.262638,2.19
1764746530.268926,2.15
1764746530.275195,2.43
1764746530.281495,2.62
1764746530.288804,2.47
1764746530.293843,2.46
1764746530.3000991,2.52
1764746530.3066251,2.58
1764746530.312675,2.55
1764746530.318908,2.19
1764746530.3251991,2.12
1764746530.331373,2.23
1764746530.33774,2.15
1764746530.343956,2.17
1764746530.3501692,2.05
1764746530.356399,1.98
1764746530.362562,2.19
1764746530.368906,2.19
1764746530.375196,2.03
1764746530.381282,1.97
1764746530.3876731,2.02
1764746530.3938408,2.07
1764746530.4002528,2.07
1764746530.406411,2.62
1764746530.4128242,3.15
1764746530.4188669,3.15
1764746530.425111,3.14
1764746530.431322,2.2
1764746530.438752,1.0
1764746530.4437702,1.47
1764746530.45007,1.91
1764746530.45637,1.7
1764746530.462605,1.72
1764746530.4688342,1.89
1764746530.4749792,1.87
1764746530.4812129,1.72
1764746530.487603,1.68
1764746530.493779,1.86
1764746530.500044,1.78
1764746530.506309,1.54
1764746530.5124822,1.76
1764746530.518871,1.81
1764746530.525066,1.7
1764746530.5314,1.7
1764746530.5386891,1.83
1764746530.543781,1.93
1764746530.550018,1.92
1764746530.556324,2.11
1764746530.562616,2.38
1764746530.568749,2.37
1764746530.5750551,2.45
1764746530.581289,2.78
1764746530.5876448,2.77
1764746530.593848,2.88
1764746530.599946,2.92
1764746530.606477,2.86
1764746530.6124952,2.88
1764746530.618701,2.79
1764746530.624987,2.82
1764746530.631225,2.82
1764746530.6376572,2.64
1764746530.6436732,2.8
1764746530.649962,2.79
1764746530.656311,2.64
1764746530.662567,2.85
1764746530.6688662,2.82
1764746530.674931,2.76
1764746530.681277,2.71
1764746530.687507,2.7
1764746530.703648,2.79
1764746530.7040489,2.7
1764746530.722291,2.69
1764746530.722541,2.83
1764746530.722943,2.76
1764746530.726858,2.71
1764746530.736822,2.69
1764746530.74527,2.62
1764746530.761182,2.8
1764746530.764736,2.74
1764746530.764875,2.66
1764746530.764971,2.77
1764746530.770405,2.77
1764746530.777534,2.83
1764746530.781706,2.61
1764746530.7979891,2.45
1764746530.79833,2.6
1764746530.800491,2.33
1764746530.8074958,2.07
1764746530.812651,2.14
1764746530.818892,1.95
1764746530.825147,1.86
1764746530.8313768,1.79
1764746530.838163,1.72
1764746530.843851,1.83
1764746530.8500302,1.76
1764746530.8563142,1.64
1764746530.8625011,1.72
1764746530.868809,1.61
1764746530.874989,1.57
1764746530.881346,1.65
1764746530.887736,1.94
1764746530.893764,2.96
1764746530.899929,3.12
1764746530.90634,2.84
1764746530.9125838,1.64
1764746530.918794,0.64
1764746530.924938,1.04
1764746530.931274,1.27
1764746530.937695,1.11
1764746530.943676,1.21
1764746530.949929,1.16
1764746530.9562602,1.07
1764746530.962501,1.12
1764746530.968788,1.02
1764746530.9749389,1.07
1764746530.981208,1.07
1764746530.988153,0.96
1764746530.993633,1.1
1764746530.999875,1.05
1764746531.006134,1.0
1764746531.0124931,1.0
1764746531.018738,0.92
1764746531.024876,0.9
1764746531.031142,1.03
1764746531.037575,0.88
1764746531.043732,0.9
1764746531.049842,0.87
1764746531.056097,0.87
1764746531.0624142,1.01
1764746531.068661,0.96
1764746531.074783,0.98
1764746531.08113,1.01
1764746531.087863,0.97
1764746531.0937731,0.98
1764746531.09988,0.89
1764746531.106147,0.93
1764746531.112374,1.04
1764746531.118906,0.77
1764746531.124991,0.72
1764746531.1312058,0.89
1764746531.137555,0.79
1764746531.143573,0.72
1764746531.149816,0.78
1764746531.156262,0.8
1764746531.162516,0.8
1764746531.1687438,0.7
1764746531.174863,0.79
1764746531.181226,0.84
1764746531.187864,0.74
1764746531.193658,0.83
1764746531.199932,0.88
1764746531.20612,0.79
1764746531.212557,0.8
1764746531.219134,0.7
1764746531.224988,0.89
1764746531.231282,1.06
1764746531.237736,0.92
1764746531.243745,0.97
1764746531.2499478,1.05
1764746531.2562811,1.1
1764746531.262435,1.14
1764746531.268641,1.1
1764746531.274813,1.12
1764746531.281131,1.08
1764746531.2875352,0.84
1764746531.293707,0.71
1764746531.2998688,0.67
1764746531.3062332,0.67
1764746531.3123782,0.71
1764746531.3186402,0.53
1764746531.324779,0.62
1764746531.331132,0.63
1764746531.3376482,0.52
1764746531.343765,0.55
1764746531.349972,0.61
1764746531.356075,0.52
1764746531.362508,0.52
1764746531.368681,0.51
1764746531.374783,0.95
1764746531.3811069,1.86
1764746531.387742,2.14
1764746531.393613,1.98
1764746531.399912,0.7
1764746531.406118,0.0
1764746531.412374,0.0
1764746531.41857,0.18
1764746531.424889,0.56
1764746531.43128,0.39
1764746531.43742,0.12
1764746531.443715,0.35
1764746531.4499042,0.39
1764746531.456447,0.26
1764746531.462368,0.4
1764746531.468659,0.33
1764746531.474886,0.4
1764746531.48109,0.43
1764746531.487571,0.38
1764746531.493779,0.5
1764746531.499872,0.44
1764746531.50611,0.42
1764746531.512398,0.54
1764746531.518691,0.58
1764746531.524798,0.64
1764746531.531304,0.66
1764746531.5374231,0.63
1764746531.5436149,0.7
1764746531.5498571,0.74
1764746531.556155,0.8
1764746531.56227,0.91
1764746531.56866,0.83
1764746531.57474,0.84
1764746531.581088,0.91
1764746531.587323,0.86
1764746531.5936,0.9
1764746531.599859,0.87
1764746531.60613,0.8
1764746531.612318,0.84
1764746531.619355,0.76
1764746531.624927,0.76
1764746531.631259,0.85
1764746531.6373498,0.81
1764746531.643759,0.81
1764746531.649889,0.76
1764746531.6561532,0.78
1764746531.6623611,0.86
1764746531.669037,0.8
1764746531.674755,0.8
1764746531.6811,0.8
1764746531.687548,0.72
1764746531.693474,0.86
1764746531.699732,0.79
1764746531.706058,0.72
1764746531.712285,0.87
1764746531.718944,0.86
1764746531.7247748,0.89
1764746531.731345,0.95
1764746531.738242,0.96
1764746531.743517,1.08
1764746531.749734,1.08
1764746531.7561212,1.05
1764746531.7622569,1.1
1764746531.768689,1.09
1764746531.774634,1.02
1764746531.781051,0.79
1764746531.787668,0.58
1764746531.793512,0.75
1764746531.799752,0.69
1764746531.8059928,0.53
1764746531.8122208,0.6
1764746531.818739,0.59
1764746531.824828,0.71
1764746531.830974,0.67
1764746531.837308,0.56
1764746531.843515,0.64
1764746531.8499782,0.59
1764746531.856023,0.54
1764746531.862405,0.81
1764746531.868566,1.5
1764746531.874722,2.15
1764746531.880991,2.1
1764746531.8873322,1.43
1764746531.893538,0.28
1764746531.8997738,0.08
1764746531.9060092,0.59
1764746531.912204,0.7
1764746531.91852,0.33
1764746531.9248111,0.49
1764746531.931094,0.71
1764746531.937462,0.4
1764746531.943658,0.53
1764746531.9497962,0.86
1764746531.9563289,0.73
1764746531.962347,0.59
1764746531.968538,0.65
1764746531.974761,0.86
1764746531.981004,0.85
1764746531.987616,0.74
1764746531.9934988,0.93
1764746531.999874,1.06
1764746532.0060632,0.86
1764746532.012217,0.9
1764746532.018485,0.92
1764746532.024759,0.89
1764746532.030887,1.04
1764746532.037477,1.23
1764746532.043533,1.29
1764746532.0496829,1.18
1764746532.056087,1.24
1764746532.062208,1.6
1764746532.0686028,1.52
1764746532.07468,1.46
1764746532.0809422,1.59
1764746532.0876422,1.51
1764746532.0936608,1.6
1764746532.0997398,1.68
1764746532.105906,1.69
1764746532.1122549,1.71
1764746532.118448,1.67
1764746532.124884,1.77
1764746532.1309838,1.81
1764746532.138394,1.7
1764746532.143654,1.95
1764746532.14974,1.97
1764746532.155934,1.85
1764746532.162318,1.92
1764746532.168577,1.94
1764746532.174818,1.97
1764746532.1811929,1.87
1764746532.187428,1.8
1764746532.193692,1.91
1764746532.199852,1.85
1764746532.2059772,1.73
1764746532.212254,1.87
1764746532.2184992,1.99
1764746532.224739,2.08
1764746532.231136,2.06
1764746532.237611,2.12
1764746532.243619,2.45
1764746532.249818,2.45
1764746532.255933,2.21
1764746532.262201,2.32
1764746532.2685509,2.36
1764746532.27467,2.27
1764746532.2809138,2.17
1764746532.288279,1.96
1764746532.293639,1.86
1764746532.299747,1.9
1764746532.3062131,1.86
1764746532.31222,1.8
1764746532.318478,1.74
1764746532.3247612,1.75
1764746532.330979,1.79
1764746532.337818,1.65
1764746532.343534,1.72
1764746532.349644,1.76
1764746532.3560362,1.94
1764746532.362239,2.76
1764746532.368491,3.14
1764746532.374617,3.15
1764746532.380924,3.1
1764746532.3874822,1.8
1764746532.3933702,1.26
1764746532.399677,1.75
1764746532.409994,2.02
1764746532.42547,1.94
1764746532.453595,1.81
1764746532.458358,1.74
1764746532.458948,1.93
1764746532.465066,1.72
1764746532.4754229,1.61
1764746532.482555,1.74
1764746532.482732,1.81
1764746532.485886,1.62
1764746532.486451,1.63
1764746532.4884229,1.92
1764746532.488697,1.94
1764746532.488899,1.8
1764746532.493387,2.0
1764746532.5010262,2.13
1764746532.505915,1.95
1764746532.512138,1.85
1764746532.518295,1.87
1764746532.524618,2.09
1764746532.530897,2.12
1764746532.537475,1.85
1764746532.543296,2.03
1764746532.549671,2.18
1764746532.555839,2.04
1764746532.562251,2.04
1764746532.56836,1.98
1764746532.5746,1.76
1764746532.580836,2.22
1764746532.587136,2.21
1764746532.5933802,1.99
1764746532.599911,1.75
1764746532.6057842,1.89
1764746532.61202,2.17
1764746532.618287,1.98
1764746532.624547,1.77
1764746532.630785,1.8
1764746532.637053,1.83
1764746532.643328,1.89
1764746532.649548,1.72
1764746532.6557949,1.79
1764746532.6620102,1.79
1764746532.668294,1.62
1764746532.674601,1.96
1764746532.680753,2.02
1764746532.6870751,1.8
1764746532.693293,1.85
1764746532.699497,1.96
1764746532.70573,2.03
1764746532.712126,2.09
1764746532.718278,1.95
1764746532.7245922,2.04
1764746532.730761,2.18
1764746532.737068,2.04
1764746532.743326,2.03
1764746532.749548,2.1
1764746532.755799,1.87
1764746532.762003,1.75
1764746532.768287,1.63
1764746532.774425,1.55
1764746532.780766,1.73
1764746532.787086,1.72
1764746532.793257,1.58
1764746532.7995431,1.48
1764746532.8057642,1.64
1764746532.812006,1.75
1764746532.818292,1.56
1764746532.82454,1.52
1764746532.8307729,1.54
1764746532.837045,1.46
1764746532.843271,1.64
1764746532.849539,2.07
1764746532.855674,2.8
1764746532.862016,3.12
1764746532.868225,2.74
1764746532.874584,1.31
1764746532.880736,0.7
1764746532.8873038,1.32
1764746532.893339,1.47
1764746532.899563,1.22
1764746532.905814,1.18
1764746532.912032,1.51
1764746532.918208,1.55
1764746532.924528,1.33
1764746532.930679,1.37
1764746532.937031,1.43
1764746532.9432142,1.43
1764746532.949483,1.43
1764746532.9558048,1.35
1764746532.96209,1.52
1764746532.96828,1.64
1764746532.9745831,1.41
1764746532.980735,1.52
1764746532.987006,1.57
1764746532.993182,1.49
1764746532.999469,1.54
1764746533.00576,1.63
1764746533.012082,1.71
1764746533.018223,1.79
1764746533.024493,1.82
1764746533.030707,1.8
1764746533.037066,1.78
1764746533.043251,1.84
1764746533.049498,1.66
1764746533.055686,1.58
1764746533.062034,1.62
1764746533.068238,1.68
1764746533.074377,1.61
1764746533.080717,1.47
1764746533.086999,1.37
1764746533.093258,1.51
1764746533.099422,1.56
1764746533.105656,1.43
1764746533.111992,1.39
1764746533.118188,1.52
1764746533.1244988,1.54
1764746533.130733,1.43
1764746533.137099,1.47
1764746533.143202,1.47
1764746533.149458,1.49
1764746533.155756,1.39
1764746533.1620018,1.42
1764746533.168156,1.6
1764746533.174423,1.57
1764746533.180646,1.57
1764746533.187031,1.59
1764746533.193119,1.71
1764746533.199418,1.66
1764746533.205648,1.79
1764746533.211918,2.09
1764746533.218229,1.94
1764746533.224396,1.8
1764746533.230669,1.96
1764746533.2369332,1.89
1764746533.243214,1.7
1764746533.249564,1.68
1764746533.255662,1.66
1764746533.26193,1.74
1764746533.268142,1.72
1764746533.274494,1.64
1764746533.280631,1.62
1764746533.286962,1.72
1764746533.293168,1.83
1764746533.29943,1.79
1764746533.305676,1.66
1764746533.311959,1.79
1764746533.318123,1.83
1764746533.324446,1.97
1764746533.330633,2.43
1764746533.336948,3.15
1764746533.343251,3.16
1764746533.3494542,3.16
1764746533.355619,2.79
1764746533.361911,1.31
1764746533.3682292,1.26
1764746533.3744152,1.91
1764746533.38056,1.89
1764746533.386961,1.68
1764746533.393245,1.82
1764746533.3994088,1.79
1764746533.405675,1.96
1764746533.4119968,2.16
1764746533.418182,2.06
1764746533.424545,2.05
1764746533.43066,2.13
1764746533.437013,2.06
1764746533.443161,2.19
1764746533.449427,2.21
1764746533.455594,2.17
1764746533.461901,2.2
1764746533.468258,2.15
1764746533.4743948,2.22
1764746533.480693,2.33
1764746533.486932,2.24
1764746533.493158,2.32
1764746533.4993558,2.46
1764746533.505615,2.44
1764746533.511889,2.64
1764746533.5181398,2.54
1764746533.524468,2.48
1764746533.53065,2.65
1764746533.537014,2.64
1764746533.543123,2.53
1764746533.549385,2.44
1764746533.5556102,2.63
1764746533.561897,2.6
1764746533.56817,2.34
1764746533.574388,2.35
1764746533.5805938,2.48
1764746533.5869,2.26
1764746533.59318,2.28
1764746533.599395,2.33
1764746533.6056268,2.27
1764746533.611804,2.33
1764746533.6181068,2.16
1764746533.624413,2.15
1764746533.630629,2.24
1764746533.63687,2.17
1764746533.643102,2.23
1764746533.649376,2.21
1764746533.6556668,2.08
1764746533.661852,2.14
1764746533.668159,2.23
1764746533.674358,2.37
1764746533.6806982,2.32
1764746533.687008,2.08
1764746533.693179,2.4
1764746533.699371,2.51
1764746533.705642,2.27
1764746533.7120209,2.28
1764746533.71806,2.28
1764746533.724344,2.16
1764746533.730655,2.02
1764746533.7370071,1.8
1764746533.743125,1.97
1764746533.7494452,1.92
1764746533.755717,1.77
1764746533.761876,1.85
1764746533.76812,1.77
1764746533.774391,1.79
1764746533.780591,1.85
1764746533.786856,1.71
1764746533.793063,1.79
1764746533.7992609,1.7
1764746533.805548,1.64
1764746533.811859,1.93
1764746533.818054,2.27
1764746533.824301,3.03
1764746533.830467,3.16
1764746533.836794,3.15
1764746533.843067,2.21
1764746533.8492868,0.99
1764746533.8555992,1.35
1764746533.861805,1.86
1764746533.868116,1.63
1764746533.874298,1.48
1764746533.880525,1.66
1764746533.886792,1.6
1764746533.8930671,1.63
1764746533.8992808,1.58
1764746533.9088929,1.52
1764746533.930687,1.74
1764746533.930867,1.66
1764746533.957524,1.67
1764746533.957925,1.74
1764746533.976167,1.74
1764746533.994069,1.8
1764746533.9944088,1.82
1764746533.994765,1.84
1764746533.995171,1.97
1764746533.995404,1.91
1764746533.995602,1.96
1764746533.995827,2.1
1764746533.996098,2.01
1764746533.996337,2.13
1764746533.999348,2.15
1764746534.005522,2.04
1764746534.01556,2.11
1764746534.0386932,2.07
1764746534.039783,2.11
1764746534.0400178,2.18
1764746534.040223,2.02
1764746534.048275,2.02
1764746534.049708,2.07
1764746534.055489,2.04
1764746534.0618398,2.07
1764746534.06804,1.94
1764746534.075896,1.89
1764746534.080529,1.95
1764746534.0867982,1.8
1764746534.093018,1.83
1764746534.099316,1.79
1764746534.105525,1.69
1764746534.111861,1.74
1764746534.118219,1.64
1764746534.12455,1.64
1764746534.130712,1.66
1764746534.137102,1.55
1764746534.1430762,1.6
1764746534.149256,1.62
1764746534.1555672,1.52
1764746534.161939,1.56
1764746534.168055,1.51
1764746534.174291,1.57
1764746534.180553,1.65
1764746534.186815,1.59
1764746534.193082,1.62
1764746534.199242,1.7
1764746534.205434,1.68
1764746534.2118888,1.71
1764746534.2198222,1.57
1764746534.22424,1.58
1764746534.230479,1.61
1764746534.2368598,1.25
1764746534.24299,1.27
1764746534.249247,1.29
1764746534.255552,1.24
1764746534.2621708,1.3
1764746534.268064,1.25
1764746534.274336,1.23
1764746534.280475,1.3
1764746534.287512,1.18
1764746534.292942,1.31
1764746534.299148,1.32
1764746534.30549,1.2
1764746534.311795,1.31
1764746534.319524,1.46
1764746534.3241751,2.25
1764746534.330511,3.08
1764746534.336798,2.85
1764746534.34298,2.04
1764746534.349206,0.75
1764746534.3554392,0.74
1764746534.361707,1.41
1764746534.3680089,1.27
1764746534.37421,1.08
1764746534.380471,1.24
1764746534.38674,1.13
1764746534.3929431,1.24
1764746534.399198,1.35
1764746534.4054232,1.24
1764746534.411679,1.38
1764746534.417971,1.3
1764746534.424192,1.31
1764746534.430537,1.49
1764746534.436833,1.35
1764746534.443004,1.45
1764746534.449122,1.49
1764746534.455552,1.4
1764746534.461648,1.56
1764746534.468072,1.49
1764746534.474259,1.48
1764746534.480456,1.64
1764746534.486607,1.55
1764746534.492967,1.68
1764746534.499211,1.75
1764746534.5055308,1.63
1764746534.511633,1.72
1764746534.518315,1.69
1764746534.524298,1.64
1764746534.530593,1.58
1764746534.5366771,1.5
1764746534.543041,1.7
1764746534.549206,1.63
1764746534.5555189,1.45
1764746534.561972,1.56
1764746534.568198,1.42
1764746534.57425,1.41
1764746534.580617,1.57
1764746534.586686,1.44
1764746534.592951,1.49
1764746534.599166,1.52
1764746534.605558,1.41
1764746534.611596,1.5
1764746534.618008,1.37
1764746534.624122,1.45
1764746534.630541,1.54
1764746534.6369438,1.37
1764746534.642955,1.43
1764746534.6491818,1.45
1764746534.655403,1.33
1764746534.661623,1.45
1764746534.668015,1.44
1764746534.674159,1.6
1764746534.68061,1.73
1764746534.686671,1.54
1764746534.692846,1.66
1764746534.69962,1.9
1764746534.705316,1.88
1764746534.7115772,1.95
1764746534.7181618,1.81
1764746534.724117,1.88
1764746534.73045,2.06
1764746534.7366972,1.67
1764746534.742823,1.64
1764746534.749125,1.81
1764746534.755303,1.62
1764746534.761554,1.71
1764746534.76862,1.71
1764746534.7741172,1.61
1764746534.7802722,1.75
1764746534.786774,1.66
1764746534.792802,1.7
1764746534.799102,1.73
1764746534.8053482,1.51
1764746534.8116832,1.66
1764746534.818062,1.78
1764746534.824117,2.39
1764746534.830578,3.15
1764746534.836578,3.14
1764746534.8429198,2.89
1764746534.849338,1.58
1764746534.855426,1.05
1764746534.86154,1.74
1764746534.868128,1.75
1764746534.8740952,1.64
1764746534.880367,1.72
1764746534.88666,1.65
1764746534.893143,1.66
1764746534.899446,1.76
1764746534.905401,1.67
1764746534.911623,1.79
1764746534.918012,1.69
1764746534.924049,1.59
1764746534.930463,1.83
1764746534.9365811,1.71
1764746534.9429271,1.7
1764746534.9491122,1.91
1764746534.955491,1.89
1764746534.961688,2.03
1764746534.967959,1.96
1764746534.973991,1.94
1764746534.980605,2.06
1764746534.986634,2.03
1764746534.9928682,2.24
1764746534.999037,2.19
1764746535.005354,1.98
1764746535.011551,2.27
1764746535.0179572,2.33
1764746535.024082,2.17
1764746535.030508,2.21
1764746535.0366552,2.08
1764746535.043009,2.36
1764746535.0492191,2.44
1764746535.055306,2.15
1764746535.061646,2.44
1764746535.067986,2.64
1764746535.074028,2.61
1764746535.0802329,2.68
1764746535.08658,2.69
1764746535.092869,2.78
1764746535.09954,2.94
1764746535.105521,2.94
1764746535.1114712,2.87
1764746535.118179,2.74
1764746535.124023,2.79
1764746535.130264,2.84
1764746535.136568,2.88
1764746535.142856,3.06
1764746535.1490471,2.94
1764746535.155379,2.73
1764746535.161716,2.8
1764746535.1678772,2.96
1764746535.174046,2.93
1764746535.180306,2.97
1764746535.186562,2.84
1764746535.192702,2.88
1764746535.199178,2.84
1764746535.205276,3.04
1764746535.211488,3.14
1764746535.218554,3.01
1764746535.224076,2.98
1764746535.230188,3.12
1764746535.2365289,2.9
1764746535.242789,2.77
1764746535.24922,2.67
1764746535.255299,2.45
1764746535.261458,2.54
1764746535.268178,2.74
1764746535.273924,2.76
1764746535.280193,2.73
1764746535.286475,2.8
1764746535.292728,3.0
1764746535.298971,2.84
1764746535.3051908,2.56
1764746535.311452,2.79
1764746535.318281,2.94
1764746535.323953,2.91
1764746535.330238,3.16
1764746535.336477,3.17
1764746535.342679,3.17
1764746535.349047,3.17
1764746535.3552058,3.17
1764746535.361501,3.15
1764746535.367869,2.71
1764746535.3739688,2.41
1764746535.380146,2.83
1764746535.3866382,2.82
1764746535.392707,2.83
1764746535.39962,2.93
1764746535.40525,2.67
1764746535.411563,2.71
1764746535.4186292,2.83
1764746535.424002,2.84
1764746535.430258,2.83
1764746535.436594,2.81
1764746535.442823,2.88
1764746535.4489331,3.0
1764746535.455186,2.81
1764746535.4614851,3.05
1764746535.468181,3.12
1764746535.473909,3.05
1764746535.48025,3.14
1764746535.4864798,3.02
1764746535.4927318,3.05
1764746535.498873,3.14
1764746535.505227,3.14
1764746535.511505,3.15
1764746535.5181298,3.14
1764746535.523937,3.14
1764746535.5302432,3.15
1764746535.536473,3.15
1764746535.5427358,3.16
1764746535.548955,3.16
1764746535.5551848,3.14
1764746535.561495,3.14
1764746535.567977,2.95
1764746535.595502,2.86
1764746535.624108,2.89
1764746535.6355178,2.54
1764746535.6382332,2.54
1764746535.638486,2.75
1764746535.638708,2.71
1764746535.638922,2.6
1764746535.639148,2.54
1764746535.646144,2.51
1764746535.646614,2.65
1764746535.6469288,2.54
1764746535.648041,2.39
1764746535.649057,2.61
1764746535.655257,2.59
1764746535.661449,2.53
1764746535.667795,2.2
1764746535.6739972,2.15
1764746535.68038,2.68
1764746535.6871722,2.53
1764746535.692671,2.47
1764746535.6992278,2.37
1764746535.705196,2.6
1764746535.711457,2.9
1764746535.71771,2.67
1764746535.723912,2.39
1764746535.730203,2.68
1764746535.73857,2.84
1764746535.744531,2.93
1764746535.749016,2.75
1764746535.7554402,2.74
1764746535.7614038,2.8
1764746535.7692769,2.47
1764746535.773939,2.52
1764746535.780108,2.73
1764746535.786411,2.43
1764746535.7926662,2.48
1764746535.798844,2.6
1764746535.80512,2.36
1764746535.811339,2.23
1764746535.817847,2.33
1764746535.823873,2.39
1764746535.830019,2.96
1764746535.836349,3.16
1764746535.842574,3.17
1764746535.848868,3.17
1764746535.855102,2.97
1764746535.861312,1.64
1764746535.867778,1.42
1764746535.873834,1.91
1764746535.880085,2.06
1764746535.886412,1.73
1764746535.8926442,1.85
1764746535.8989818,1.86
1764746535.905129,1.73
1764746535.911372,1.96
1764746535.91811,1.95
1764746535.923867,1.8
1764746535.930103,1.85
1764746535.93632,1.61
1764746535.9426298,1.78
1764746535.948833,2.03
1764746535.955054,1.87
1764746535.961251,2.02
1764746535.9676852,1.96
1764746535.973802,1.91
1764746535.980042,2.12
1764746535.98629,1.97
1764746535.992576,2.13
1764746535.9987671,2.3
1764746536.005057,2.14
1764746536.011294,2.33
1764746536.01777,2.28
1764746536.023836,2.14
1764746536.030028,2.3
1764746536.036326,2.11
1764746536.042632,2.16
1764746536.048981,2.32
1764746536.0550358,2.12
1764746536.0613382,2.18
1764746536.067698,2.17
1764746536.073802,2.02
1764746536.080129,2.14
1764746536.0862908,2.05
1764746536.0927548,2.12
1764746536.098955,2.12
1764746536.105085,1.96
1764746536.1112618,2.09
1764746536.118037,2.06
1764746536.123848,1.98
1764746536.130062,2.0
1764746536.136344,1.87
1764746536.142609,1.91
1764746536.148898,2.01
1764746536.155074,1.87
1764746536.161266,1.94
1764746536.1676102,1.88
1764746536.17387,1.84
1764746536.180056,2.03
1764746536.186283,1.93
1764746536.192532,2.01
1764746536.198812,2.06
1764746536.205065,2.04
1764746536.211211,2.31
1764746536.217587,2.24
1764746536.223798,2.05
1764746536.230027,2.34
1764746536.236216,2.24
1764746536.2425668,2.07
1764746536.248794,2.09
1764746536.255021,2.05
1764746536.261225,2.18
1764746536.2677,2.02
1764746536.27375,1.94
1764746536.280021,2.0
1764746536.286299,1.86
1764746536.2925491,1.94
1764746536.298857,1.93
1764746536.304926,1.66
1764746536.311242,1.75
1764746536.317696,1.76
1764746536.3238442,1.94
1764746536.330052,2.82
1764746536.336256,3.15
1764746536.342512,3.16
1764746536.3489048,2.91
1764746536.355057,1.19
1764746536.361246,0.96
1764746536.367692,1.57
1764746536.373822,1.58
1764746536.38,1.39
1764746536.386302,1.17
1764746536.392611,1.39
1764746536.398967,1.34
1764746536.405,1.11
1764746536.4113111,1.3
1764746536.417536,1.23
1764746536.423684,1.16
1764746536.429963,1.22
1764746536.436196,1.07
1764746536.442487,1.25
1764746536.448726,1.29
1764746536.454893,1.05
1764746536.461211,1.2
1764746536.467488,1.17
1764746536.473739,1.11
1764746536.479979,1.21
1764746536.486262,1.03
1764746536.492466,1.14
1764746536.498742,1.12
1764746536.5049229,1.05
1764746536.511202,1.24
1764746536.51775,1.06
1764746536.523736,0.97
1764746536.53005,1.2
1764746536.53629,0.97
1764746536.542521,0.93
1764746536.548795,0.88
1764746536.555003,0.67
1764746536.561307,0.8
1764746536.567477,0.75
1764746536.573632,0.63
1764746536.579988,0.77
1764746536.586349,0.65
1764746536.592459,0.75
1764746536.598734,0.81
1764746536.6050189,0.68
1764746536.61117,0.82
1764746536.6174772,0.71
1764746536.623687,0.67
1764746536.6300008,0.87
1764746536.63625,0.6
1764746536.642445,0.73
1764746536.6487029,0.81
1764746536.65487,0.52
1764746536.661128,0.65
1764746536.667472,0.65
1764746536.673643,0.51
1764746536.679919,0.67
1764746536.686112,0.57
1764746536.692388,0.67
1764746536.698637,0.6
1764746536.704947,0.4
1764746536.711113,0.82
1764746536.71746,0.74
1764746536.723728,0.43
1764746536.7298298,0.59
1764746536.736213,0.41
1764746536.7424169,0.22
1764746536.7487612,0.08
1764746536.754914,0.0
1764746536.761127,0.0
1764746536.767493,0.0
1764746536.773636,0.0
1764746536.779951,0.0
1764746536.7862852,0.0
1764746536.7924302,0.0
1764746536.798664,0.0
1764746536.8049002,0.0
1764746536.811143,0.0
1764746536.8174531,0.0
1764746536.823659,0.0
1764746536.8298812,0.16
1764746536.836192,1.22
1764746536.842421,1.58
1764746536.848612,0.99
1764746536.854974,0.0
1764746536.8611588,0.0
1764746536.867501,0.0
1764746536.87361,0.0
1764746536.879981,0.0
1764746536.886114,0.0
1764746536.892421,0.0
1764746536.89861,0.0
1764746536.904803,0.0
1764746536.9111302,0.0
1764746536.9175732,0.0
1764746536.923546,0.0
1764746536.92987,0.0
1764746536.936095,0.0
1764746536.942374,0.0
1764746536.948616,0.0
1764746536.954818,0.0
1764746536.961153,0.0
1764746536.96737,0.0
1764746536.97364,0.0
1764746536.979987,0.0
1764746536.9861262,0.0
1764746536.992412,0.0
1764746536.9985971,0.0
1764746537.004968,0.0
1764746537.0112069,0.0
1764746537.0175202,0.0
1764746537.023644,0.0
1764746537.029851,0.0
1764746537.0360682,0.0
1764746537.042372,0.0
1764746537.048626,0.0
1764746537.05484,0.0
1764746537.061103,0.0
1764746537.067465,0.0
1764746537.087706,0.0
1764746537.089586,0.0
1764746537.089786,0.0
1764746537.128845,0.0
1764746537.129301,0.0
1764746537.1294222,0.0
1764746537.138932,0.0
1764746537.13969,0.0
1764746537.1398668,0.0
1764746537.140029,0.0
1764746537.141985,0.0
1764746537.1430998,0.0
1764746537.149794,0.0
1764746537.155184,0.0
1764746537.163701,0.0
1764746537.169025,0.0
1764746537.1736782,0.0
1764746537.179861,0.0
1764746537.186216,0.0
1764746537.197477,0.0
1764746537.2034922,0.0
1764746537.2048929,0.0
1764746537.211227,0.0
1764746537.2203069,0.0
1764746537.223595,0.0
1764746537.229866,0.03
1764746537.236161,0.07
1764746537.242492,0.1
1764746537.248721,0.01
1764746537.2548962,0.0
1764746537.261226,0.0
1764746537.267503,0.0
1764746537.2737122,0.0
1764746537.279828,0.22
1764746537.285984,0.06
1764746537.292243,0.08
1764746537.29852,0.3
1764746537.304715,0.16
1764746537.3110468,0.31
1764746537.317257,0.35
1764746537.3234718,0.28
1764746537.3297448,1.04
1764746537.335998,1.86
1764746537.342261,1.94
1764746537.348557,1.74
1764746537.354794,0.55
1764746537.3609972,0.0
1764746537.3673851,0.24
1764746537.373565,0.46
1764746537.3798358,0.6
1764746537.386015,0.38
1764746537.39227,0.46
1764746537.398651,0.67
1764746537.404713,0.44
1764746537.411041,0.61
1764746537.417372,0.65
1764746537.423491,0.54
1764746537.429746,0.68
1764746537.4360058,0.58
1764746537.442228,0.68
1764746537.448634,0.81
1764746537.454767,0.65
1764746537.461129,0.84
1764746537.467528,0.88
1764746537.473579,0.83
1764746537.479785,1.06
1764746537.486039,0.91
1764746537.4921842,0.93
1764746537.498485,1.22
1764746537.5048058,1.1
1764746537.510939,1.2
1764746537.5172212,1.3
1764746537.523492,1.29
1764746537.5297248,1.49
1764746537.5359402,1.32
1764746537.542209,1.4
1764746537.548485,1.45
1764746537.554798,1.39
1764746537.561053,1.55
1764746537.568128,1.46
1764746537.5736,1.44
1764746537.579818,1.65
1764746537.586015,1.56
1764746537.59225,1.55
1764746537.5985112,1.89
1764746537.6048498,1.82
1764746537.610872,1.94
1764746537.6173172,1.97
1764746537.6235049,1.89
1764746537.62983,2.09
1764746537.635967,2.01
1764746537.642192,1.97
1764746537.648603,1.89
1764746537.654794,1.7
1764746537.660991,2.01
1764746537.667373,1.91
1764746537.6733382,1.6
1764746537.679855,1.85
1764746537.68609,1.71
1764746537.69219,1.69
1764746537.698509,1.82
1764746537.704784,1.67
1764746537.7110798,2.0
1764746537.7175732,2.12
1764746537.723543,1.8
1764746537.729769,2.11
1764746537.7359948,2.03
1764746537.742141,1.75
1764746537.748404,1.97
1764746537.754685,1.78
1764746537.760929,1.84
1764746537.767218,2.08
1764746537.773549,1.89
1764746537.779816,2.0
1764746537.785932,1.99
1764746537.792076,1.98
1764746537.798529,2.15
1764746537.804778,1.99
1764746537.810994,1.99
1764746537.817292,2.18
1764746537.823444,2.3
1764746537.829761,3.15
1764746537.835958,3.16
1764746537.842164,3.16
1764746537.848476,3.16
1764746537.8546078,2.66
1764746537.8608608,1.62
1764746537.867189,1.88
1764746537.8733718,2.22
1764746537.879806,2.28
1764746537.885877,2.0
1764746537.892119,2.06
1764746537.898474,2.37
1764746537.904686,2.03
1764746537.91101,2.14
1764746537.917161,2.27
1764746537.923349,2.04
1764746537.929715,2.17
1764746537.935869,1.97
1764746537.942125,1.93
1764746537.948521,1.98
1764746537.954633,1.93
1764746537.960972,1.96
1764746537.967157,1.9
1764746537.973352,1.59
1764746537.979697,1.93
1764746537.985879,1.85
1764746537.9921238,1.77
1764746537.998433,2.06
1764746538.0046568,1.86
1764746538.01087,1.96
1764746538.0171509,2.03
1764746538.023307,1.83
1764746538.0296252,1.99
1764746538.035875,1.86
1764746538.042117,1.88
1764746538.048584,1.95
1764746538.05457,1.79
1764746538.0608242,1.98
1764746538.067189,1.87
1764746538.073314,1.92
1764746538.079715,2.14
1764746538.085801,1.82
1764746538.092082,1.7
1764746538.0984042,1.98
1764746538.104589,1.88
1764746538.110893,1.78
1764746538.1171808,1.65
1764746538.123286,1.68
1764746538.129617,1.92
1764746538.135831,1.67
1764746538.142121,1.64
1764746538.148471,1.88
1764746538.154624,1.6
1764746538.1608598,1.62
1764746538.167274,1.63
1764746538.1733,1.46
1764746538.1796968,1.56
1764746538.185801,1.49
1764746538.19206,1.47
1764746538.198571,1.61
1764746538.20454,1.51
1764746538.210935,1.68
1764746538.217066,1.52
1764746538.223403,1.35
1764746538.229621,1.37
1764746538.235801,1.11
1764746538.242042,0.99
1764746538.248517,1.18
1764746538.25458,1.07
1764746538.260828,1.09
1764746538.267134,0.89
1764746538.273432,0.94
1764746538.279564,1.18
1764746538.285756,1.03
1764746538.2920609,0.91
1764746538.298754,1.02
1764746538.304588,0.89
1764746538.3108091,1.01
1764746538.3171,1.51
1764746538.323314,2.27
1764746538.329576,2.66
1764746538.3358269,2.47
1764746538.3419871,1.35
1764746538.3493278,0.43
1764746538.3545249,0.69
1764746538.360825,1.15
1764746538.3670652,0.95
1764746538.373307,0.82
1764746538.37961,0.98
1764746538.3858051,0.86
1764746538.392044,0.82
1764746538.3983,0.98
1764746538.404491,0.84
1764746538.410754,0.79
1764746538.4170282,0.96
1764746538.4233038,0.95
1764746538.429594,1.04
1764746538.435791,0.93
1764746538.442039,0.96
1764746538.448323,1.14
1764746538.45458,0.86
1764746538.460735,1.04
1764746538.467065,1.11
1764746538.473166,0.99
1764746538.479406,1.2
1764746538.485793,1.1
1764746538.492037,1.07
1764746538.498314,1.31
1764746538.504529,1.12
1764746538.510786,1.23
1764746538.51701,1.31
1764746538.523288,1.24
1764746538.529498,1.26
1764746538.535776,1.1
1764746538.542062,1.1
1764746538.548864,1.24
1764746538.554552,1.17
1764746538.560749,1.17
1764746538.567056,1.23
1764746538.573254,1.11
1764746538.5795178,1.31
1764746538.585821,1.23
1764746538.592003,1.22
1764746538.5982358,1.39
1764746538.604495,1.34
1764746538.610706,1.38
1764746538.617002,1.38
1764746538.623231,1.33
1764746538.629473,1.51
1764746538.635725,1.46
1764746538.642006,1.43
1764746538.648303,1.57
1764746538.654521,1.44
1764746538.6606982,1.64
1764746538.666961,1.74
1764746538.67327,1.54
1764746538.679459,1.74
1764746538.6857128,1.84
1764746538.6919858,1.8
1764746538.698282,1.79
1764746538.7045,1.75
1764746538.7107232,1.86
1764746538.7170172,1.78
1764746538.723267,1.53
1764746538.7296572,1.58
1764746538.735853,1.49
1764746538.742165,1.54
1764746538.748343,1.69
1764746538.754524,1.44
1764746538.76077,1.55
1764746538.766932,1.71
1764746538.773201,1.56
1764746538.779535,1.66
1764746538.786104,1.57
1764746538.808478,1.53
1764746538.8393118,1.71
1764746538.85533,1.64
1764746538.877217,2.49
1764746538.877645,3.16
1764746538.878091,3.15
1764746538.878492,2.93
1764746538.879018,1.32
1764746538.879339,0.88
1764746538.8798158,1.78
1764746538.88007,1.67
1764746538.8806112,1.48
1764746538.880811,1.59
1764746538.88097,1.63
1764746538.881121,1.8
1764746538.885769,1.66
1764746538.892038,1.64
1764746538.9061818,1.99
1764746538.906442,1.85
1764746538.910912,1.91
1764746538.9170308,2.04
1764746538.923172,1.89
1764746538.929665,2.13
1764746538.935883,2.07
1764746538.941974,2.02
1764746538.948201,2.23
1764746538.954644,2.03
1764746538.960831,2.11
1764746538.966986,2.43
1764746538.973281,2.15
1764746538.979518,2.28
1764746538.985701,2.26
1764746538.9919,2.26
1764746538.9982002,2.44
1764746539.00436,2.18
1764746539.01071,2.28
1764746539.016885,2.36
1764746539.023166,2.09
1764746539.029545,2.24
1764746539.03574,2.14
1764746539.041881,2.06
1764746539.04828,2.27
1764746539.054385,2.03
1764746539.060639,2.09
1764746539.066871,2.09
1764746539.073227,2.0
1764746539.079435,2.35
1764746539.085685,2.18
1764746539.091959,2.1
1764746539.0982158,2.32
1764746539.104376,2.07
1764746539.110636,2.15
1764746539.116906,2.29
1764746539.1232069,2.07
1764746539.129335,2.24
1764746539.1356218,2.08
1764746539.142026,2.02
1764746539.1486452,2.29
1764746539.154337,2.04
1764746539.160683,2.19
1764746539.166935,2.33
1764746539.173394,2.0
1764746539.1796029,2.27
1764746539.185689,2.42
1764746539.192018,2.28
1764746539.198646,2.35
1764746539.204384,2.11
1764746539.210814,2.27
1764746539.216927,2.21
1764746539.2232478,1.73
1764746539.22947,2.02
1764746539.235868,1.96
1764746539.241951,1.76
1764746539.248517,1.93
1764746539.254443,1.7
1764746539.260705,1.77
1764746539.267565,2.01
1764746539.2732391,1.76
1764746539.279496,1.83
1764746539.285696,1.72
1764746539.291913,1.68
1764746539.2995589,1.93
1764746539.304404,2.21
1764746539.310792,3.14
1764746539.317055,3.16
1764746539.3231978,3.13
1764746539.329354,1.93
1764746539.33566,0.68
1764746539.341912,1.3
1764746539.3485482,1.91
1764746539.354344,1.41
1764746539.360657,1.42
1764746539.366924,1.56
1764746539.373211,1.38
1764746539.379414,1.6
1764746539.385634,1.45
1764746539.391933,1.39
1764746539.3982122,1.67
1764746539.404379,1.42
1764746539.410502,1.45
1764746539.416856,1.62
1764746539.423122,1.41
1764746539.429448,1.65
1764746539.4355772,1.53
1764746539.44179,1.48
1764746539.448256,1.82
1764746539.454316,1.59
1764746539.460619,1.62
1764746539.466891,1.75
1764746539.473241,1.68
1764746539.479386,1.87
1764746539.485594,1.73
1764746539.491833,1.68
1764746539.4981492,1.96
1764746539.504286,1.7
1764746539.5106602,1.66
1764746539.516802,1.79
1764746539.523167,1.62
1764746539.529511,1.62
1764746539.535488,1.52
1764746539.541835,1.51
1764746539.548148,1.71
1764746539.5542789,1.47
1764746539.5606542,1.46
1764746539.56675,1.59
1764746539.5731552,1.39
1764746539.579326,1.55
1764746539.585508,1.49
1764746539.591825,1.4
1764746539.598121,1.53
1764746539.604262,1.35
1764746539.6105978,1.42
1764746539.616749,1.45
1764746539.623096,1.26
1764746539.629241,1.45
1764746539.6356668,1.31
1764746539.641844,1.14
1764746539.6481311,1.46
1764746539.654378,1.3
1764746539.6605928,1.25
1764746539.666862,1.45
1764746539.673194,1.3
1764746539.679486,1.49
1764746539.6856802,1.45
1764746539.691816,1.45
1764746539.698039,1.68
1764746539.704324,1.38
1764746539.710575,1.36
1764746539.716942,1.49
1764746539.723061,1.12
1764746539.729374,1.13
1764746539.735574,1.09
1764746539.741709,0.98
1764746539.748085,1.16
1764746539.754215,0.97
1764746539.760636,1.03
1764746539.766708,1.15
1764746539.77306,0.93
1764746539.779434,1.09
1764746539.785582,1.02
1764746539.791789,0.85
1764746539.798044,1.07
1764746539.804266,1.07
1764746539.810579,1.76
1764746539.816743,2.62
1764746539.823104,2.44
1764746539.829329,1.93
1764746539.835525,0.62
1764746539.8417192,0.23
1764746539.848073,0.99
1764746539.854261,0.94
1764746539.8604548,0.76
1764746539.866704,0.89
1764746539.87318,0.78
1764746539.8793018,0.96
1764746539.885424,0.93
1764746539.891763,0.78
1764746539.898177,1.05
1764746539.90425,0.92
1764746539.9105852,0.96
1764746539.9168708,1.1
1764746539.923053,0.89
1764746539.929368,1.09
1764746539.935599,1.11
1764746539.94177,1.07
1764746539.948032,1.3
1764746539.954357,1.11
1764746539.96047,1.19
1764746539.966733,1.4
1764746539.972971,1.19
1764746539.979252,1.38
1764746539.9855092,1.47
1764746539.9917078,1.37
1764746539.998056,1.55
1764746540.004438,1.41
1764746540.010536,1.43
1764746540.016701,1.55
1764746540.0230489,1.31
1764746540.0296378,1.49
1764746540.035718,1.46
1764746540.04169,1.29
1764746540.04798,1.49
1764746540.054446,1.32
1764746540.060562,1.3
1764746540.066717,1.41
1764746540.073101,1.2
1764746540.079284,1.44
1764746540.085433,1.37
1764746540.091699,1.25
1764746540.097934,1.57
1764746540.1044018,1.37
1764746540.110398,1.32
1764746540.1167722,1.52
1764746540.122989,1.32
1764746540.129398,1.45
1764746540.13546,1.44
1764746540.141682,1.2
1764746540.148057,1.42
1764746540.1541271,1.42
1764746540.1604722,1.31
1764746540.16673,1.58
1764746540.1728268,1.51
1764746540.179261,1.6
1764746540.185376,1.61
1764746540.1916852,1.68
1764746540.197988,1.97
1764746540.2041368,1.7
1764746540.210419,1.65
1764746540.216699,1.9
1764746540.2228968,1.57
1764746540.229202,1.5
1764746540.2354429,1.44
1764746540.2416809,1.49
1764746540.247921,1.61
1764746540.254192,1.46
1764746540.260452,1.48
1764746540.266808,1.65
1764746540.272931,1.6
1764746540.279279,1.76
1764746540.285475,1.67
1764746540.291759,1.5
1764746540.29794,1.87
1764746540.30432,1.8
1764746540.31039,2.37
1764746540.316744,3.15
1764746540.32286,3.14
1764746540.329107,2.94
1764746540.335542,1.46
1764746540.3415968,1.05
1764746540.3479822,2.07
1764746540.35426,1.92
1764746540.360534,1.69
1764746540.366559,1.86
1764746540.382178,1.77
1764746540.38238,2.04
1764746540.390124,1.97
1764746540.40322,1.84
1764746540.4229062,2.24
1764746540.4234471,2.16
1764746540.4302452,2.09
1764746540.4303749,2.35
1764746540.430484,2.29
1764746540.430594,2.34
1764746540.453234,2.24
1764746540.453442,2.29
1764746540.453609,2.62
1764746540.4676611,2.41
1764746540.468092,2.41
1764746540.468669,2.6
1764746540.472833,2.36
1764746540.479272,2.68
1764746540.493771,2.83
1764746540.494957,2.54
1764746540.49958,2.87
1764746540.5040908,2.95
1764746540.5103328,2.81
1764746540.5166342,2.8
1764746540.522924,2.63
1764746540.5298471,2.98
1764746540.535427,3.04
1764746540.541646,2.6
1764746540.5478668,2.72
1764746540.5541272,2.76
1764746540.560388,2.79
1764746540.566712,2.97
1764746540.572962,2.64
1764746540.579199,2.69
1764746540.585349,2.86
1764746540.591617,2.74
1764746540.5979788,2.83
1764746540.604225,2.55
1764746540.6103392,2.58
1764746540.616688,3.01
1764746540.622773,2.52
1764746540.629243,2.6
1764746540.635404,2.77
1764746540.641623,2.51
1764746540.6479,2.58
1764746540.654063,2.48
1764746540.6603022,2.47
1764746540.6666932,2.69
1764746540.672728,2.39
1764746540.679229,2.58
1764746540.685463,2.72
1764746540.691681,2.77
1764746540.697964,2.86
1764746540.704224,2.57
1764746540.710283,2.66
1764746540.716674,2.68
1764746540.722826,2.22
1764746540.7293508,2.37
1764746540.7354171,2.33
1764746540.741729,2.33
1764746540.747928,2.29
1764746540.7542772,2.09
1764746540.760273,2.21
1764746540.7665129,2.4
1764746540.77275,2.08
1764746540.77921,2.05
1764746540.785263,2.24
1764746540.791618,2.17
1764746540.797756,2.21
1764746540.8040671,2.48
1764746540.8102798,3.15
1764746540.816517,3.16
1764746540.822659,3.16
1764746540.829204,3.1
1764746540.835266,1.73
1764746540.8415732,1.38
1764746540.847879,2.17
1764746540.8540192,2.16
1764746540.860273,2.0
1764746540.866557,2.09
1764746540.872789,2.2
1764746540.879287,2.34
1764746540.885241,2.17
1764746540.891632,2.1
1764746540.8978078,2.32
1764746540.9040482,1.97
1764746540.910193,2.16
1764746540.9164732,2.59
1764746540.922682,2.17
1764746540.929065,2.24
1764746540.935265,2.42
1764746540.941458,2.29
1764746540.947864,2.52
1764746540.953972,2.39
1764746540.96025,2.43
1764746540.9664588,2.59
1764746540.972642,2.47
1764746540.9790149,2.47
1764746540.985143,2.54
1764746540.991492,2.38
1764746540.997737,2.57
1764746541.003965,2.56
1764746541.010217,2.44
1764746541.016525,2.5
1764746541.0226078,2.32
1764746541.0289888,2.37
1764746541.035216,2.38
1764746541.041466,2.29
1764746541.047777,2.4
1764746541.054034,2.33
1764746541.0601962,2.22
1764746541.066477,2.4
1764746541.072623,2.36
1764746541.079026,2.44
1764746541.0854049,2.4
1764746541.091489,2.21
1764746541.097739,2.41
1764746541.104277,2.46
1764746541.11023,2.43
1764746541.11655,2.44
1764746541.122677,2.19
1764746541.129122,2.58
1764746541.1353228,2.58
1764746541.141492,2.21
1764746541.14774,2.53
1764746541.154079,2.55
1764746541.160267,2.38
1764746541.166463,2.47
1764746541.172674,2.39
1764746541.179039,2.65
1764746541.185143,2.66
1764746541.191458,2.31
1764746541.197715,2.39
1764746541.204012,2.5
1764746541.2102022,2.31
1764746541.2164,2.17
1764746541.222652,1.94
1764746541.2291992,2.15
1764746541.23523,2.17
1764746541.2414238,1.9
1764746541.2477582,1.96
1764746541.253979,1.92
1764746541.260181,1.84
1764746541.266531,2.07
1764746541.272618,1.97
1764746541.279082,2.05
1764746541.28515,2.16
1764746541.291467,2.14
1764746541.297704,2.78
1764746541.303946,3.16
1764746541.3101828,3.17
1764746541.316417,3.17
1764746541.322644,3.16
1764746541.328973,2.65
1764746541.335278,1.62
1764746541.34149,1.88
1764746541.3478348,2.54
1764746541.354038,2.21
1764746541.360225,1.92
1764746541.366436,2.07
1764746541.3726668,1.91
1764746541.379155,2.04
1764746541.38521,2.09
1764746541.391482,1.94
1764746541.39776,2.08
1764746541.4039109,2.02
1764746541.410157,1.99
1764746541.416409,2.2
1764746541.42273,2.08
1764746541.429088,2.17
1764746541.435216,2.18
1764746541.441385,2.07
1764746541.447774,2.36
1764746541.4539242,2.25
1764746541.46015,2.21
1764746541.4663832,2.54
1764746541.472546,2.35
1764746541.479004,2.46
1764746541.4851751,2.5
1764746541.4914749,2.31
1764746541.497945,2.38
1764746541.503988,2.44
1764746541.510207,2.55
1764746541.516397,2.59
1764746541.5226188,2.24
1764746541.5291672,2.44
1764746541.535211,2.47
1764746541.541431,2.23
1764746541.547698,2.49
1764746541.5538108,2.39
1764746541.5601332,2.28
1764746541.566358,2.51
1764746541.572518,2.35
1764746541.578915,2.45
1764746541.585362,2.49
1764746541.591437,2.17
1764746541.597823,2.47
1764746541.603915,2.55
1764746541.610115,2.37
1764746541.616529,2.37
1764746541.622765,2.13
1764746541.629191,2.45
1764746541.635296,2.49
1764746541.6413991,2.11
1764746541.647649,2.38
1764746541.653833,2.37
1764746541.660117,2.19
1764746541.6663182,2.42
1764746541.672596,2.38
1764746541.678876,2.57
1764746541.685123,2.52
1764746541.691358,2.23
1764746541.697645,2.57
1764746541.703786,2.38
1764746541.710189,2.05
1764746541.71639,2.23
1764746541.7225332,1.96
1764746541.7288692,1.93
1764746541.735065,1.98
1764746541.7414532,1.77
1764746541.7476668,1.96
1764746541.75381,1.85
1764746541.760065,1.76
1764746541.766371,1.96
1764746541.772701,1.65
1764746541.7791538,1.75
1764746541.785138,1.95
1764746541.791379,1.97
1764746541.797626,2.99
1764746541.803929,3.16
1764746541.81009,3.15
1764746541.816395,2.57
1764746541.822627,0.75
1764746541.82894,1.03
1764746541.835103,1.69
1764746541.8414,1.3
1764746541.84758,1.35
1764746541.853987,1.26
1764746541.86032,1.18
1764746541.866389,1.36
1764746541.872468,1.08
1764746541.878863,1.31
1764746541.884985,1.46
1764746541.891233,1.19
1764746541.897569,1.42
1764746541.9039092,1.41
1764746541.910028,1.32
1764746541.9163032,1.49
1764746541.922532,1.34
1764746541.928892,1.45
1764746541.935049,1.52
1764746541.941311,1.31
1764746541.947564,1.58
1764746541.953913,1.48
1764746541.960151,1.44
1764746541.966345,1.68
1764746541.972671,1.49
1764746541.978845,1.64
1764746541.985128,1.75
1764746541.991215,1.5
1764746541.997529,1.71
1764746542.003905,1.6
1764746542.010131,1.52
1764746542.016287,1.72
1764746542.0227048,1.43
1764746542.028959,1.46
1764746542.0350451,1.56
1764746542.041252,1.32
1764746542.0477288,1.59
1764746542.0538409,1.49
1764746542.0600278,1.38
1764746542.066362,1.64
1764746542.072747,1.44
1764746542.078829,1.51
1764746542.085148,1.61
1764746542.0913122,1.35
1764746542.097597,1.55
1764746542.103794,1.44
1764746542.1100428,1.3
1764746542.116326,1.49
1764746542.122507,1.22
1764746542.1289978,1.28
1764746542.135054,1.36
1764746542.141342,1.13
1764746542.147558,1.3
1764746542.154015,1.18
1764746542.160018,1.12
1764746542.166341,1.45
1764746542.172596,1.18
1764746542.178836,1.2
1764746542.18514,1.4
1764746542.191277,1.21
1764746542.197559,1.34
1764746542.203795,1.08
1764746542.2099998,0.95
1764746542.216235,1.13
1764746542.222731,0.65
1764746542.2287538,0.63
1764746542.235204,0.75
1764746542.2412338,0.41
1764746542.247594,0.6
1764746542.2537332,0.57
1764746542.259969,0.36
1764746542.27239,0.52
1764746542.292615,0.36
1764746542.292841,0.41
1764746542.295605,0.45
1764746542.296793,0.13
1764746542.307696,0.42
1764746542.310781,0.86
1764746542.335166,1.52
1764746542.342311,1.99
1764746542.34663,1.39
1764746542.3496242,0.22
1764746542.351083,0.0
1764746542.351342,0.0
1764746542.351626,0.0
1764746542.353736,0.0
1764746542.3600168,0.0
1764746542.366818,0.0
1764746542.372724,0.0
1764746542.381374,0.0
1764746542.3849878,0.0
1764746542.391208,0.0
1764746542.398032,0.0
1764746542.40373,0.0
1764746542.410053,0.0
1764746542.416204,0.0
1764746542.422466,0.0
1764746542.428738,0.0
1764746542.434977,0.0
1764746542.441208,0.0
1764746542.44753,0.0
1764746542.4537358,0.0
1764746542.459918,0.0
1764746542.4662132,0.09
1764746542.472453,0.04
1764746542.478733,0.22
1764746542.484952,0.25
1764746542.491224,0.0
1764746542.4974132,0.24
1764746542.503644,0.2
1764746542.5099509,0.0
1764746542.516098,0.26
1764746542.522369,0.09
1764746542.528773,0.07
1764746542.534879,0.18
1764746542.541236,0.0
1764746542.547453,0.1
1764746542.5536351,0.06
1764746542.559906,0.0
1764746542.566106,0.07
1764746542.572319,0.0
1764746542.578638,0.0
1764746542.5848472,0.0
1764746542.591147,0.0
1764746542.597455,0.0
1764746542.60358,0.0
1764746542.60992,0.0
1764746542.616132,0.0
1764746542.6223118,0.0
1764746542.628763,0.0
1764746542.634976,0.0
1764746542.641133,0.0
1764746542.647536,0.0
1764746542.653753,0.0
1764746542.659853,0.0
1764746542.6661649,0.0
1764746542.672359,0.0
1764746542.678648,0.0
1764746542.6848562,0.0
1764746542.691133,0.0
1764746542.697394,0.0
1764746542.7036932,0.0
1764746542.7098298,0.0
1764746542.716082,0.04
1764746542.722311,0.0
1764746542.728748,0.0
1764746542.7350762,0.0
1764746542.741171,0.0
1764746542.7473722,0.0
1764746542.753865,0.0
1764746542.76002,0.0
1764746542.766279,0.0
1764746542.772415,0.0
1764746542.7788548,0.0
1764746542.784941,0.0
1764746542.791216,0.0
1764746542.797432,0.0
1764746542.803658,0.0
1764746542.809914,0.0
1764746542.816148,0.0
1764746542.822378,0.26
1764746542.828629,1.54
1764746542.8348958,1.52
1764746542.8412,0.0
1764746542.847366,0.0
1764746542.853777,0.0
1764746542.859823,0.0
1764746542.866069,0.0
1764746542.8723352,0.0
1764746542.879046,0.0
1764746542.884928,0.05
1764746542.8911428,0.11
1764746542.8974268,0.44
1764746542.9036522,0.32
1764746542.909935,0.25
1764746542.916338,0.67
1764746542.922338,0.63
1764746542.928677,0.56
1764746542.934885,0.67
1764746542.9411168,0.64
1764746542.9473011,0.91
1764746542.953612,0.92
1764746542.960032,0.82
1764746542.9661708,1.16
1764746542.972422,1.07
1764746542.978724,1.21
1764746542.984912,1.61
1764746542.991085,1.54
1764746542.997408,1.74
1764746543.00371,1.81
1764746543.009963,1.74
1764746543.016141,1.83
1764746543.022379,1.7
1764746543.0287528,1.72
1764746543.034785,1.71
1764746543.041193,1.41
1764746543.047336,1.57
1764746543.0536509,1.49
1764746543.05984,1.26
1764746543.0660548,1.41
1764746543.072371,1.21
1764746543.078521,1.34
1764746543.0847669,1.43
1764746543.090993,1.18
1764746543.097406,1.37
1764746543.103573,1.38
1764746543.109795,1.3
1764746543.116168,1.55
1764746543.122317,1.42
1764746543.1286342,1.47
1764746543.134786,1.77
1764746543.141081,1.52
1764746543.147409,1.57
1764746543.153465,1.75
1764746543.159729,1.76
1764746543.165963,1.87
1764746543.1722612,1.69
1764746543.178563,1.96
1764746543.1847749,2.17
1764746543.191047,1.91
1764746543.1972558,2.1
1764746543.203541,2.19
1764746543.209734,1.99
1764746543.216029,2.12
1764746543.2222111,1.93
1764746543.228707,1.99
1764746543.234761,1.91
1764746543.241027,1.4
1764746543.247357,1.58
1764746543.253526,1.63
1764746543.259713,1.38
1764746543.265996,1.54
1764746543.2721689,1.6
1764746543.2789278,1.56
1764746543.284655,1.57
1764746543.290903,1.44
1764746543.2971468,1.53
1764746543.303472,1.44
1764746543.3096802,1.48
1764746543.315938,1.87
1764746543.3222022,2.0
1764746543.328531,2.9
1764746543.33475,3.15
1764746543.340964,3.08
1764746543.3471942,2.0
1764746543.3534248,1.03
1764746543.359721,1.54
1764746543.366008,1.96
1764746543.372182,1.61
1764746543.3785868,1.48
1764746543.384778,1.74
1764746543.3910148,1.7
1764746543.397164,1.79
1764746543.403472,1.81
1764746543.409787,1.8
1764746543.416069,2.09
1764746543.422208,1.83
1764746543.4284768,1.92
1764746543.434738,2.29
1764746543.440952,2.1
1764746543.447173,2.16
1764746543.453395,2.23
1764746543.459745,2.23
1764746543.4659169,2.5
1764746543.4721448,2.34
1764746543.4785311,2.3
1764746543.484716,2.47
1764746543.490989,2.44
1764746543.497181,2.74
1764746543.503438,2.72
1764746543.509773,2.49
1764746543.515884,2.88
1764746543.522136,2.87
1764746543.528495,2.77
1764746543.534666,3.0
1764746543.540905,2.79
1764746543.547242,2.78
1764746543.553434,2.84
1764746543.559694,2.84
1764746543.56598,2.91
1764746543.5722072,2.69
1764746543.578601,2.96
1764746543.584668,3.01
1764746543.590978,2.65
1764746543.597277,2.81
1764746543.6034591,2.84
1764746543.6095622,2.97
1764746543.615894,3.09
1764746543.622129,2.81
1764746543.628417,2.77
1764746543.634638,2.96
1764746543.641114,2.76
1764746543.647151,2.82
1764746543.653433,2.83
1764746543.6596632,2.76
1764746543.665895,2.94
1764746543.6721358,2.79
1764746543.678717,2.81
1764746543.684581,3.07
1764746543.690937,2.86
1764746543.697088,3.01
1764746543.70349,3.14
1764746543.709693,3.14
1764746543.71601,3.15
1764746543.722173,3.13
1764746543.728529,3.11
1764746543.7346811,2.97
1764746543.740866,2.71
1764746543.747162,2.89
1764746543.753463,2.87
1764746543.7597172,2.6
1764746543.7675571,2.63
1764746543.7842162,2.9
1764746543.822018,2.88
1764746543.834246,2.7
1764746543.847117,2.65
1764746543.84737,2.84
1764746543.847571,2.72
1764746543.850633,2.61
1764746543.850878,2.9
1764746543.857035,3.16
1764746543.86918,3.17
1764746543.869565,3.17
1764746543.869819,3.17
1764746543.870059,3.17
1764746543.870294,3.15
1764746543.870613,2.49
1764746543.870822,2.14
1764746543.872326,2.47
1764746543.878431,2.65
1764746543.884734,2.54
1764746543.9005802,2.37
1764746543.9008791,2.43
1764746543.903407,2.48
1764746543.9127302,2.45
1764746543.916716,2.54
1764746543.92215,2.59
1764746543.928452,2.6
1764746543.934706,2.54
1764746543.941087,2.4
1764746543.947168,2.72
1764746543.953422,2.64
1764746543.960404,2.47
1764746543.965899,2.67
1764746543.972165,2.61
1764746543.978379,2.66
1764746543.984651,2.75
1764746543.990921,2.63
1764746543.997077,2.72
1764746544.003294,2.78
1764746544.00965,2.7
1764746544.0157928,2.84
1764746544.02201,2.73
1764746544.028348,2.63
1764746544.034598,2.86
1764746544.040906,2.59
1764746544.047102,2.51
1764746544.053312,2.59
1764746544.059617,2.51
1764746544.06585,2.41
1764746544.0720189,2.25
1764746544.078389,2.28
1764746544.084576,2.42
1764746544.090923,2.26
1764746544.0971131,2.31
1764746544.1033862,2.3
1764746544.109692,2.26
1764746544.115888,2.37
1764746544.122158,2.25
1764746544.1285,2.17
1764746544.134614,2.27
1764746544.141006,2.1
1764746544.147191,2.16
1764746544.153266,2.2
1764746544.1595771,1.95
1764746544.1658502,2.05
1764746544.17208,2.0
1764746544.178424,1.99
1764746544.18456,2.08
1764746544.1908,1.83
1764746544.197052,2.1
1764746544.203275,2.16
1764746544.20955,1.83
1764746544.21575,1.97
1764746544.222046,1.84
1764746544.2284071,1.74
1764746544.234609,1.69
1764746544.240737,1.44
1764746544.247073,1.53
1764746544.253294,1.4
1764746544.259676,1.26
1764746544.2657652,1.57
1764746544.272095,1.36
1764746544.279341,1.29
1764746544.28459,1.51
1764746544.290854,1.28
1764746544.297152,1.33
1764746544.303385,1.3
1764746544.30966,1.15
1764746544.31582,1.76
1764746544.322133,2.45
1764746544.328585,2.94
1764746544.334552,2.98
1764746544.340837,1.77
1764746544.347127,0.7
1764746544.3532522,0.91
1764746544.359468,1.22
1764746544.366104,1.33
1764746544.3719969,0.98
1764746544.378232,0.96
1764746544.384486,1.17
1764746544.390733,0.97
1764746544.39696,1.05
1764746544.403293,1.0
1764746544.409811,0.84
1764746544.415733,1.01
1764746544.421982,0.86
1764746544.4282508,0.81
1764746544.434422,0.96
1764746544.440763,0.7
1764746544.446951,0.83
1764746544.4533591,0.93
1764746544.459608,0.63
1764746544.465729,0.87
1764746544.471951,0.82
1764746544.478708,0.7
1764746544.484567,0.82
1764746544.4908,0.67
1764746544.497,0.82
1764746544.5033212,0.79
1764746544.509435,0.55
1764746544.5157251,0.78
1764746544.521898,0.57
1764746544.528346,0.41
1764746544.534585,0.6
1764746544.540685,0.36
1764746544.546926,0.36
1764746544.553277,0.36
1764746544.5595782,0.16
1764746544.565878,0.28
1764746544.5720289,0.12
1764746544.5782452,0.06
1764746544.584455,0.21
1764746544.590715,0.0
1764746544.597363,0.0
1764746544.603235,0.0
1764746544.60943,0.0
1764746544.61571,0.0
1764746544.622071,0.0
1764746544.6283672,0.0
1764746544.634409,0.0
1764746544.640681,0.0
1764746544.646943,0.0
1764746544.653206,0.0
1764746544.6594088,0.0
1764746544.665662,0.0
1764746544.671985,0.0
1764746544.678236,0.0
1764746544.684434,0.0
1764746544.690717,0.0
1764746544.696933,0.0
1764746544.7032058,0.0
1764746544.709465,0.0
1764746544.715644,0.0
1764746544.721886,0.0
1764746544.72843,0.0
1764746544.734495,0.0
1764746544.74065,0.0
1764746544.747074,0.0
1764746544.753155,0.0
1764746544.7594008,0.0
1764746544.765672,0.0
1764746544.771876,0.0
1764746544.778254,0.0
1764746544.7844532,0.0
1764746544.790635,0.0
1764746544.7968729,0.0
1764746544.803217,0.0
1764746544.8100631,0.0
1764746544.815737,0.0
1764746544.821974,0.0
1764746544.828256,0.0
1764746544.834411,0.46
1764746544.840726,0.0
1764746544.847134,0.0
1764746544.853426,0.0
1764746544.859477,0.0
1764746544.865694,0.0
1764746544.8719249,0.0
1764746544.878305,0.0
1764746544.884467,0.0
1764746544.890581,0.0
1764746544.896904,0.0
1764746544.903313,0.0
1764746544.9095628,0.0
1764746544.915644,0.0
1764746544.921831,0.0
1764746544.928155,0.0
1764746544.9343722,0.0
1764746544.9406312,0.0
1764746544.9468448,0.0
1764746544.953297,0.0
1764746544.959393,0.0
1764746544.9656608,0.0
1764746544.971887,0.0
1764746544.9781451,0.0
1764746544.984444,0.0
1764746544.990656,0.0
1764746544.9969249,0.13
1764746545.0031471,0.37
1764746545.009537,0.21
1764746545.0156171,0.33
1764746545.0218089,0.31
1764746545.028151,0.21
1764746545.034346,0.29
1764746545.040652,0.14
1764746545.046842,0.18
1764746545.053175,0.26
1764746545.059555,0.17
1764746545.0656362,0.25
1764746545.072,0.18
1764746545.078748,0.19
1764746545.0843751,0.36
1764746545.090598,0.24
1764746545.096878,0.25
1764746545.103209,0.29
1764746545.109947,0.18
1764746545.115693,0.3
1764746545.121799,0.3
1764746545.128271,0.22
1764746545.13442,0.33
1764746545.140604,0.27
1764746545.146765,0.39
1764746545.1531332,0.43
1764746545.1595058,0.36
1764746545.1655612,0.56
1764746545.171861,0.65
1764746545.178166,0.6
1764746545.18445,0.76
1764746545.1905909,0.91
1764746545.196807,1.0
1764746545.203087,0.94
1764746545.209572,0.83
1764746545.21577,0.99
1764746545.221896,0.76
1764746545.2280588,0.6
1764746545.2344089,0.81
1764746545.24056,0.74
1764746545.2467752,0.74
1764746545.253057,0.79
1764746545.25953,0.77
1764746545.265634,0.89
1764746545.271925,0.83
1764746545.278629,0.8
1764746545.284309,0.96
1764746545.290598,0.83
1764746545.296823,0.82
1764746545.303112,1.04
1764746545.309554,1.6
1764746545.315478,2.48
1764746545.321707,2.53
1764746545.3281238,1.88
1764746545.334335,0.76
1764746545.340566,0.38
1764746545.346963,0.89
1764746545.353166,1.06
1764746545.35952,0.82
1764746545.365611,0.92
1764746545.371897,0.97
1764746545.378291,0.94
1764746545.3842711,1.09
1764746545.3906822,0.99
1764746545.396943,1.02
1764746545.403162,1.12
1764746545.409317,1.05
1764746545.50047,1.22
1764746545.500704,1.28
1764746545.502091,1.15
1764746545.5022998,1.3
1764746545.502488,1.34
1764746545.502668,1.38
1764746545.50289,1.5
1764746545.5057511,1.5
1764746545.506003,1.63
1764746545.506235,1.58
1764746545.506456,1.58
1764746545.506672,1.74
1764746545.506882,1.67
1764746545.507105,1.7
1764746545.507329,1.74
1764746545.510676,1.63
1764746545.515732,1.74
1764746545.521847,1.67
1764746545.5309272,1.48
1764746545.539265,1.67
1764746545.5411332,1.61
1764746545.54684,1.53
1764746545.553053,1.61
1764746545.5593112,1.51
1764746545.5656672,1.56
1764746545.5720289,1.52
1764746545.578133,1.54
1764746545.5842612,1.62
1764746545.590497,1.48
1764746545.596984,1.57
1764746545.6030872,1.72
1764746545.609378,1.61
1764746545.6155782,1.68
1764746545.621805,1.71
1764746545.628969,1.77
1764746545.634312,1.99
1764746545.640522,1.85
1764746545.646925,1.88
1764746545.653027,2.07
1764746545.6592808,1.97
1764746545.665549,2.13
1764746545.671818,2.1
1764746545.677993,2.11
1764746545.684232,2.27
1764746545.690458,2.21
1764746545.69679,2.16
1764746545.702972,2.2
1764746545.7092538,2.1
1764746545.715494,2.02
1764746545.721737,1.9
1764746545.728043,1.99
1764746545.7341938,2.15
1764746545.7405078,2.09
1764746545.746808,2.19
1764746545.7528708,2.26
1764746545.759231,2.17
1764746545.76543,2.41
1764746545.771637,2.39
1764746545.777955,2.3
1764746545.784149,2.44
1764746545.790397,2.55
1764746545.79678,3.05
1764746545.802855,3.16
1764746545.809175,3.17
1764746545.81537,3.17
1764746545.82165,3.17
1764746545.828001,3.15
1764746545.834154,2.65
1764746545.840373,2.03
1764746545.846742,2.58
1764746545.85296,2.87
1764746545.85917,2.38
1764746545.865335,2.43
1764746545.8717,2.66
1764746545.8779788,2.63
1764746545.884135,2.55
1764746545.8904278,2.48
1764746545.896657,2.68
1764746545.902901,2.74
1764746545.909172,2.53
1764746545.915373,2.77
1764746545.9216151,2.93
1764746545.927955,2.8
1764746545.934155,2.77
1764746545.9403908,2.82
1764746545.946683,3.06
1764746545.952851,3.12
1764746545.95914,3.12
1764746545.965374,3.15
1764746545.971623,3.15
1764746545.9781592,3.15
1764746545.984083,3.16
1764746545.9904242,3.16
1764746545.996706,3.16
1764746546.00289,3.16
1764746546.009223,3.15
1764746546.015455,3.14
1764746546.0216792,3.1
1764746546.027999,2.98
1764746546.0341198,2.95
1764746546.0403252,2.8
1764746546.046643,2.74
1764746546.05286,2.85
1764746546.0591412,2.71
1764746546.065296,2.72
1764746546.071592,2.83
1764746546.078128,2.74
1764746546.084183,2.68
1764746546.0903628,2.62
1764746546.096692,2.61
1764746546.102836,2.63
1764746546.109162,2.46
1764746546.115356,2.61
1764746546.1216698,2.67
1764746546.128365,2.45
1764746546.134092,2.4
1764746546.1403892,2.48
1764746546.146715,2.53
1764746546.152864,2.48
1764746546.159166,2.46
1764746546.165291,2.63
1764746546.1715572,2.64
1764746546.178089,2.55
1764746546.18417,2.6
1764746546.1906738,2.5
1764746546.196775,2.27
1764746546.202917,2.27
1764746546.20916,2.2
1764746546.215374,2.23
1764746546.221604,2.12
1764746546.227896,2.04
1764746546.234036,2.11
1764746546.240299,2.06
1764746546.246606,2.12
1764746546.252804,2.05
1764746546.2592168,1.7
1764746546.2653818,1.88
1764746546.2715578,2.02
1764746546.278039,1.92
1764746546.284099,2.4
1764746546.290331,3.15
1764746546.2967172,3.15
1764746546.302892,3.07
1764746546.309175,1.69
1764746546.315422,0.83
1764746546.32158,1.49
1764746546.328418,1.49
1764746546.3343732,1.3
1764746546.34059,1.38
1764746546.346632,1.41
1764746546.3529978,1.32
1764746546.359102,1.25
1764746546.3654022,1.31
1764746546.3717911,1.28
1764746546.378506,1.26
1764746546.384109,1.21
1764746546.390416,1.19
1764746546.396595,1.28
1764746546.4028192,1.39
1764746546.409009,1.35
1764746546.415245,1.33
1764746546.421497,1.26
1764746546.4281049,1.29
1764746546.434039,1.46
1764746546.44029,1.34
1764746546.446574,1.29
1764746546.4527628,1.51
1764746546.459053,1.55
1764746546.465552,1.41
1764746546.471601,1.47
1764746546.47784,1.54
1764746546.48401,1.49
1764746546.490325,1.38
1764746546.496638,1.4
1764746546.5028422,1.46
1764746546.509096,1.31
1764746546.515323,1.26
1764746546.521711,1.23
1764746546.527915,1.31
1764746546.53408,1.34
1764746546.5403562,1.25
1764746546.546551,1.19
1764746546.5527282,1.23
1764746546.559024,1.15
1764746546.5652092,1.26
1764746546.571473,1.24
1764746546.578379,1.12
1764746546.5839648,1.29
1764746546.590424,1.34
1764746546.5966132,1.27
1764746546.6028469,1.27
1764746546.609045,1.26
1764746546.615315,1.27
1764746546.621548,1.34
1764746546.6279309,1.47
1764746546.6340249,1.44
1764746546.640414,1.33
1764746546.6465018,1.45
1764746546.652719,1.78
1764746546.6589818,1.66
1764746546.665247,1.46
1764746546.671585,1.47
1764746546.677933,1.57
1764746546.683994,1.43
1764746546.690382,1.33
1764746546.696492,1.3
1764746546.70277,1.2
1764746546.709026,1.31
1764746546.715316,1.49
1764746546.721506,1.35
1764746546.728232,1.28
1764746546.733998,1.37
1764746546.7402282,1.28
1764746546.7465248,1.45
1764746546.752755,1.54
1764746546.759029,1.36
1764746546.765425,1.76
1764746546.771392,2.72
1764746546.7778308,3.14
1764746546.783921,3.09
1764746546.7903318,2.13
1764746546.796546,0.93
1764746546.802704,1.18
1764746546.809043,1.56
1764746546.815285,1.53
1764746546.821552,1.5
1764746546.827749,1.54
1764746546.833964,1.61
1764746546.840121,1.55
1764746546.84645,1.52
1764746546.852683,1.71
1764746546.85906,1.73
1764746546.865206,1.77
1764746546.871721,1.79
1764746546.8778298,1.83
1764746546.8840268,1.98
1764746546.890357,1.92
1764746546.896501,1.92
1764746546.902748,2.09
1764746546.90909,2.06
1764746546.915277,2.08
1764746546.921418,2.16
1764746546.928195,2.15
1764746546.934029,2.19
1764746546.940382,2.28
1764746546.946485,2.41
1764746546.952733,2.42
1764746546.959048,2.29
1764746546.965182,2.36
1764746546.971676,2.34
1764746546.977966,2.27
1764746546.983953,2.42
1764746546.9902668,2.28
1764746546.996492,2.17
1764746547.002651,2.31
1764746547.0094411,2.22
1764746547.015082,2.22
1764746547.0213718,2.26
1764746547.027759,2.17
1764746547.033982,2.26
1764746547.040182,2.21
1764746547.046368,2.19
1764746547.05266,2.32
1764746547.059097,2.24
1764746547.065255,2.27
1764746547.071408,2.35
1764746547.077742,2.24
1764746547.083951,2.37
1764746547.0903091,2.31
1764746547.109518,2.21
1764746547.11147,2.35
1764746547.1119418,2.3
1764746547.134397,2.4
1764746547.1383638,2.42
1764746547.14037,2.27
1764746547.140468,2.47
1764746547.140539,2.61
1764746547.1496582,2.49
1764746547.154259,2.49
1764746547.159441,2.43
1764746547.181656,2.46
1764746547.189494,2.34
1764746547.189667,2.13
1764746547.1897962,2.2
1764746547.197098,2.09
1764746547.197403,2.09
1764746547.2028532,2.17
1764746547.209035,1.97
1764746547.215232,2.06
1764746547.22152,2.12
1764746547.227896,1.98
1764746547.233987,2.1
1764746547.240167,1.97
1764746547.2464268,1.9
1764746547.252657,2.18
1764746547.2591722,2.82
1764746547.2651389,3.16
1764746547.2715552,3.16
1764746547.277641,3.15
1764746547.283998,1.91
1764746547.290373,0.92
1764746547.296465,1.62
1764746547.3027651,2.1
1764746547.309096,1.56
1764746547.315152,1.5
1764746547.321408,1.67
1764746547.327762,1.53
1764746547.333899,1.63
1764746547.340109,1.6
1764746547.346356,1.56
1764746547.352625,1.66
1764746547.358918,1.56
1764746547.365067,1.62
1764746547.3714318,1.69
1764746547.37761,1.57
1764746547.3837729,1.72
1764746547.390055,1.63
1764746547.396389,1.61
1764746547.402603,1.74
1764746547.408914,1.62
1764746547.415055,1.73
1764746547.4213068,1.78
1764746547.427573,1.72
1764746547.4338691,1.88
1764746547.440083,1.82
1764746547.446341,1.81
1764746547.4526122,1.89
1764746547.459027,1.76
1764746547.465064,1.82
1764746547.471463,1.83
1764746547.477597,1.68
1764746547.484001,1.77
1764746547.49023,1.66
1764746547.496403,1.56
1764746547.502792,1.73
1764746547.5089731,1.61
1764746547.515017,1.64
1764746547.521421,1.77
1764746547.527661,1.61
1764746547.533839,1.71
1764746547.540172,1.67
1764746547.5464058,1.65
1764746547.552553,1.74
1764746547.559391,1.6
1764746547.565015,1.62
1764746547.5714822,1.64
1764746547.577953,1.55
1764746547.583856,1.62
1764746547.59008,1.53
1764746547.596391,1.47
1764746547.602609,1.58
1764746547.609087,1.46
1764746547.6151009,1.49
1764746547.6216562,1.65
1764746547.627667,1.58
1764746547.6338098,1.59
1764746547.640081,1.6
1764746547.646333,1.67
1764746547.652788,1.73
1764746547.659107,1.5
1764746547.665077,1.6
1764746547.671283,1.55
1764746547.6776562,1.22
1764746547.683784,1.23
1764746547.690231,1.16
1764746547.696299,1.13
1764746547.702671,1.19
1764746547.709538,1.1
1764746547.715015,1.11
1764746547.721336,1.18
1764746547.727628,1.07
1764746547.7339342,1.1
1764746547.740043,1.09
1764746547.746433,1.06
1764746547.752605,1.15
1764746547.758919,1.5
1764746547.764999,2.51
1764746547.771513,2.91
1764746547.7776089,2.41
1764746547.7837849,1.31
1764746547.790109,0.46
1764746547.796299,0.74
1764746547.802524,1.23
1764746547.8092768,0.97
1764746547.8150988,0.88
1764746547.821376,1.04
1764746547.82747,0.98
1764746547.833784,1.03
1764746547.840044,1.02
1764746547.84637,0.98
1764746547.852601,1.14
1764746547.8592372,1.03
1764746547.865079,1.08
1764746547.871261,1.18
1764746547.8776052,1.11
1764746547.883814,1.18
1764746547.889995,1.13
1764746547.89628,1.18
1764746547.9027,1.32
1764746547.909295,1.17
1764746547.914954,1.25
1764746547.921286,1.37
1764746547.927544,1.3
1764746547.9337978,1.41
1764746547.940035,1.43
1764746547.9462998,1.34
1764746547.952574,1.51
1764746547.958812,1.41
1764746547.964979,1.43
1764746547.9714198,1.54
1764746547.977636,1.4
1764746547.983853,1.41
1764746547.990088,1.39
1764746547.996382,1.38
1764746548.00255,1.44
1764746548.009844,1.32
1764746548.015101,1.4
1764746548.021228,1.44
1764746548.027524,1.33
1764746548.0337431,1.39
1764746548.039971,1.33
1764746548.046303,1.25
1764746548.052653,1.32
1764746548.0589051,1.27
1764746548.065127,1.27
1764746548.071303,1.28
1764746548.077777,1.21
1764746548.0836968,1.3
1764746548.0900009,1.25
1764746548.0963898,1.21
1764746548.1025028,1.33
1764746548.108949,1.24
1764746548.114948,1.23
1764746548.121213,1.37
1764746548.127594,1.36
1764746548.1337368,1.43
1764746548.140011,1.38
1764746548.146508,1.5
1764746548.152386,1.66
1764746548.15887,1.5
1764746548.165076,1.47
1764746548.1715388,1.57
1764746548.1774652,1.32
1764746548.183763,1.25
1764746548.1901271,1.26
1764746548.196485,1.16
1764746548.2026398,1.24
1764746548.20902,1.15
1764746548.214973,1.17
1764746548.2213812,1.31
1764746548.227617,1.16
1764746548.2338629,1.22
1764746548.239985,1.22
1764746548.246468,1.13
1764746548.252723,1.25
1764746548.258837,1.27
1764746548.265082,1.92
1764746548.2715158,2.77
1764746548.277458,2.66
1764746548.283757,2.1
1764746548.2899652,0.85
1764746548.296418,0.34
1764746548.302714,0.98
1764746548.308819,1.03
1764746548.31493,0.84
1764746548.321377,0.95
1764746548.327501,0.93
1764746548.333842,0.89
1764746548.339922,0.94
1764746548.3462882,0.96
1764746548.352314,1.11
1764746548.358665,0.96
1764746548.364959,0.94
1764746548.371218,1.1
1764746548.377425,0.95
1764746548.383551,1.01
1764746548.389948,1.07
1764746548.396088,1.04
1764746548.402327,1.13
1764746548.408662,1.09
1764746548.4148538,1.15
1764746548.4213178,1.31
1764746548.427364,1.21
1764746548.433646,1.3
1764746548.439968,1.37
1764746548.446142,1.4
1764746548.452485,1.54
1764746548.4593651,1.39
1764746548.4650822,1.44
1764746548.4712389,1.43
1764746548.477399,1.31
1764746548.483616,1.48
1764746548.489951,1.48
1764746548.496098,1.25
1764746548.502476,1.39
1764746548.509292,1.34
1764746548.51493,1.45
1764746548.521077,1.56
1764746548.527329,1.5
1764746548.533553,1.66
1764746548.539884,1.71
1764746548.5461318,1.68
1764746548.552371,1.95
1764746548.5589492,1.9
1764746548.56489,1.92
1764746548.5711098,2.03
1764746548.5773,2.06
1764746548.5835168,2.15
1764746548.5898838,2.2
1764746548.596106,2.17
1764746548.602308,2.35
1764746548.608639,2.29
1764746548.6148,2.18
1764746548.621093,2.37
1764746548.62735,2.39
1764746548.633584,2.52
1764746548.639898,2.46
1764746548.646158,2.34
1764746548.652357,2.62
1764746548.658657,2.66
1764746548.664902,2.49
1764746548.67106,2.51
1764746548.677372,2.25
1764746548.683549,2.01
1764746548.6899898,2.12
1764746548.695987,2.23
1764746548.702317,2.22
1764746548.708825,2.04
1764746548.714821,2.15
1764746548.721022,2.35
1764746548.72742,2.18
1764746548.7337012,2.27
1764746548.7398431,2.4
1764746548.745991,2.32
1764746548.755026,2.48
1764746548.7638998,2.5
1764746548.7865589,2.95
1764746548.805467,3.16
1764746548.8057,3.16
1764746548.8059142,3.16
1764746548.806099,3.16
1764746548.821939,2.87
1764746548.822339,1.97
1764746548.822557,2.08
1764746548.822754,2.57
1764746548.822963,2.46
1764746548.8276658,2.17
1764746548.8489358,2.34
1764746548.849568,2.43
1764746548.84971,2.45
1764746548.852863,2.58
1764746548.858572,2.43
1764746548.871283,2.3
1764746548.8717282,2.41
1764746548.877328,2.41
1764746548.8835258,2.5
1764746548.893808,2.42
1764746548.8960671,2.26
1764746548.902288,2.52
1764746548.908581,2.46
1764746548.914793,2.35
1764746548.921049,2.51
1764746548.927265,2.48
1764746548.933496,2.58
1764746548.940081,2.5
1764746548.945937,2.36
1764746548.9522612,2.58
1764746548.958747,2.65
1764746548.964685,2.55
1764746548.970929,2.55
1764746548.9772558,2.62
1764746548.9834728,2.67
1764746548.989652,2.61
1764746548.995913,2.47
1764746549.002259,2.61
1764746549.008668,2.58
1764746549.014839,2.59
1764746549.020958,2.73
1764746549.027319,2.61
1764746549.0335062,2.57
1764746549.039672,2.7
1764746549.045972,2.62
1764746549.052212,2.6
1764746549.058626,2.62
1764746549.064755,2.48
1764746549.071019,2.7
1764746549.077242,2.67
1764746549.083494,2.55
1764746549.089699,2.68
1764746549.0959492,2.61
1764746549.102276,2.59
1764746549.1085482,2.53
1764746549.114791,2.61
1764746549.120994,2.73
1764746549.127253,2.65
1764746549.133523,2.71
1764746549.139807,2.82
1764746549.145967,2.81
1764746549.152211,2.78
1764746549.1587148,2.65
1764746549.164989,2.85
1764746549.171448,2.8
1764746549.1771278,2.35
1764746549.183431,2.45
1764746549.189708,2.58
1764746549.195953,2.41
1764746549.2022872,2.36
1764746549.2084749,2.25
1764746549.214668,2.59
1764746549.22098,2.7
1764746549.227303,2.22
1764746549.2334971,2.23
1764746549.239699,2.5
1764746549.2459688,2.62
1764746549.252257,2.52
1764746549.258545,2.63
1764746549.264792,3.17
1764746549.271038,3.17
1764746549.27721,3.17
1764746549.283552,3.17
1764746549.289858,3.02
1764746549.29599,1.82
1764746549.3023071,1.85
1764746549.3086631,2.49
1764746549.314683,2.38
1764746549.3209689,2.2
1764746549.3272588,2.24
1764746549.333472,2.43
1764746549.3396978,2.22
1764746549.3460128,2.44
1764746549.352237,2.7
1764746549.358473,2.49
1764746549.364695,2.44
1764746549.370923,2.65
1764746549.377134,2.67
1764746549.383543,2.69
1764746549.389662,2.61
1764746549.395863,2.62
1764746549.402187,2.8
1764746549.408378,2.72
1764746549.4147358,2.82
1764746549.420923,2.9
1764746549.427168,2.79
1764746549.433407,3.02
1764746549.439591,3.13
1764746549.445869,2.98
1764746549.4521432,3.06
1764746549.4584498,3.04
1764746549.464747,3.06
1764746549.470948,3.05
1764746549.477134,2.88
1764746549.483387,3.06
1764746549.489716,3.06
1764746549.495908,2.85
1764746549.5021398,2.97
1764746549.5084329,3.0
1764746549.514583,3.03
1764746549.5208168,3.12
1764746549.5271091,3.02
1764746549.533393,3.01
1764746549.539615,3.13
1764746549.545821,3.13
1764746549.552112,3.15
1764746549.558414,3.15
1764746549.564631,3.15
1764746549.5708978,3.15
1764746549.577139,3.15
1764746549.583353,3.16
1764746549.5895529,3.16
1764746549.595853,3.16
1764746549.602147,3.16
1764746549.608382,3.16
1764746549.61459,3.16
1764746549.6208751,3.16
1764746549.6272,3.16
1764746549.633354,3.17
1764746549.639673,3.17
1764746549.645849,3.17
1764746549.6520991,3.17
1764746549.6586251,3.17
1764746549.6646242,3.17
1764746549.670943,3.16
1764746549.677145,3.04
1764746549.68352,2.84
1764746549.689643,2.72
1764746549.695864,2.57
1764746549.7021089,2.79
1764746549.7083678,2.66
1764746549.714577,2.47
1764746549.7208252,2.57
1764746549.727133,2.48
1764746549.7334652,2.5
1764746549.739588,2.47
1764746549.745816,2.3
1764746549.7521029,2.76
1764746549.758398,3.16
1764746549.7645729,3.17
1764746549.7708852,3.17
1764746549.7771158,3.16
1764746549.7834291,2.53
1764746549.7895098,1.35
1764746549.795778,1.58
1764746549.8021078,2.21
1764746549.808373,1.89
1764746549.8145869,1.63
1764746549.8207989,1.89
1764746549.827019,1.75
1764746549.8333068,1.79
1764746549.839479,1.68
1764746549.845783,1.61
1764746549.852072,1.9
1764746549.858361,1.64
1764746549.864627,1.56
1764746549.870753,1.74
1764746549.876999,1.55
1764746549.883347,1.56
1764746549.889517,1.53
1764746549.895794,1.35
1764746549.901996,1.62
1764746549.908295,1.56
1764746549.914628,1.41
1764746549.920821,1.49
1764746549.92709,1.42
1764746549.9333289,1.51
1764746549.939566,1.48
1764746549.945722,1.3
1764746549.9520671,1.42
1764746549.958269,1.32
1764746549.964531,1.21
1764746549.970758,1.34
1764746549.976985,1.15
1764746549.9832902,1.21
1764746549.989495,1.23
1764746549.995747,1.04
1764746550.002005,1.06
1764746550.0082948,1.06
1764746550.014555,1.1
1764746550.0207272,1.11
1764746550.026926,0.87
1764746550.033303,1.0
1764746550.039522,1.07
1764746550.04575,0.86
1764746550.052028,0.99
1764746550.058294,0.96
1764746550.0644438,0.88
1764746550.0707278,0.94
1764746550.076964,0.75
1764746550.083355,0.82
1764746550.089497,0.89
1764746550.095797,0.71
1764746550.101972,0.83
1764746550.108256,0.83
1764746550.114433,0.81
1764746550.120685,0.87
1764746550.126987,0.69
1764746550.133172,0.85
1764746550.139498,1.02
1764746550.145678,0.8
1764746550.151954,0.82
1764746550.158268,0.72
1764746550.16459,0.6
1764746550.170687,0.48
1764746550.176976,0.37
1764746550.183254,0.48
1764746550.189614,0.37
1764746550.1958442,0.22
1764746550.201916,0.39
1764746550.208301,0.32
1764746550.2144582,0.27
1764746550.2206788,0.42
1764746550.2268748,0.26
1764746550.233258,0.25
1764746550.242839,0.3
1764746550.246228,0.19
1764746550.265284,0.74
1764746550.272203,1.68
1764746550.2723851,1.9
1764746550.292592,1.56
1764746550.2927208,0.21
1764746550.292779,0.0
1764746550.292833,0.0
1764746550.297652,0.0
1764746550.303762,0.0
1764746550.308388,0.0
1764746550.3145332,0.0
1764746550.32095,0.0
1764746550.326984,0.0
1764746550.3332212,0.0
1764746550.339536,0.0
1764746550.345818,0.0
1764746550.352185,0.0
1764746550.358242,0.0
1764746550.364655,0.0
1764746550.370752,0.0
1764746550.377536,0.0
1764746550.3832572,0.0
1764746550.389471,0.0
1764746550.395744,0.0
1764746550.402318,0.0
1764746550.408211,0.0
1764746550.414523,0.0
1764746550.420817,0.0
1764746550.4269812,0.0
1764746550.433175,0.0
1764746550.43941,0.0
1764746550.445643,0.0
1764746550.4519732,0.0
1764746550.458184,0.0
1764746550.4644082,0.0
1764746550.47074,0.0
1764746550.476861,0.0
1764746550.483192,0.0
1764746550.489484,0.0
1764746550.495587,0.0
1764746550.501855,0.0
1764746550.508211,0.0
1764746550.5144372,0.0
1764746550.520611,0.0
1764746550.526866,0.0
1764746550.533136,0.0
1764746550.539447,0.0
1764746550.545563,0.0
1764746550.551877,0.0
1764746550.558217,0.0
1764746550.5644338,0.0
1764746550.5706291,0.0
1764746550.5769548,0.0
1764746550.583214,0.0
1764746550.58939,0.0
1764746550.595642,0.0
1764746550.601865,0.0
1764746550.608126,0.0
1764746550.614403,0.0
1764746550.620664,0.0
1764746550.626865,0.0
1764746550.63307,0.0
1764746550.639415,0.0
1764746550.645502,0.0
1764746550.651844,0.0
1764746550.658158,0.0
1764746550.664403,0.0
1764746550.6706429,0.0
1764746550.676838,0.0
1764746550.683093,0.0
1764746550.689352,0.0
1764746550.695561,0.0
1764746550.701847,0.0
1764746550.708211,0.0
1764746550.7144132,0.0
1764746550.720622,0.0
1764746550.726826,0.0
1764746550.733098,0.0
1764746550.7393951,0.0
1764746550.745618,0.0
1764746550.7518442,0.0
1764746550.758177,0.0
1764746550.764402,0.8
1764746550.770644,1.0
1764746550.776795,0.0
1764746550.783193,0.0
1764746550.7893848,0.0
1764746550.795539,0.0
1764746550.801806,0.0
1764746550.808148,0.0
1764746550.814413,0.0
1764746550.820537,0.0
1764746550.826932,0.0
1764746550.83317,0.0
1764746550.839319,0.0
1764746550.845548,0.0
1764746550.85185,0.0
1764746550.8581262,0.0
1764746550.864344,0.0
1764746550.870657,0.0
1764746550.876968,0.03
1764746550.883075,0.3
1764746550.889418,0.35
1764746550.895583,0.22
1764746550.901862,0.31
1764746550.908101,0.49
1764746550.9143648,0.47
1764746550.920598,0.48
1764746550.926841,0.43
1764746550.9331222,0.55
1764746550.939337,0.65
1764746550.945577,0.64
1764746550.951806,0.66
1764746550.958034,0.68
1764746550.964306,0.64
1764746550.970491,0.75
1764746550.976726,0.79
1764746550.983087,0.88
1764746550.989619,1.04
1764746550.995472,0.89
1764746551.0018618,0.95
1764746551.008061,1.19
1764746551.014285,1.24
1764746551.020639,1.35
1764746551.026727,1.22
1764746551.032984,1.35
1764746551.039318,1.51
1764746551.0454478,1.36
1764746551.051797,1.44
1764746551.058109,1.46
1764746551.0644171,1.38
1764746551.070486,1.51
1764746551.0767622,1.57
1764746551.083038,1.53
1764746551.089431,1.53
1764746551.095458,1.42
1764746551.101752,1.73
1764746551.108033,1.8
1764746551.114295,1.66
1764746551.120506,1.71
1764746551.1267352,1.86
1764746551.133095,1.95
1764746551.139473,2.08
1764746551.145439,1.94
1764746551.151757,1.85
1764746551.15802,1.82
1764746551.16433,1.61
1764746551.1704671,1.77
1764746551.176754,1.75
1764746551.18311,1.63
1764746551.189426,1.62
1764746551.1954932,1.72
1764746551.201706,1.87
1764746551.208054,1.76
1764746551.214296,1.64
1764746551.220451,1.74
1764746551.226786,1.74
1764746551.233116,1.64
1764746551.23934,1.78
1764746551.2455091,2.28
1764746551.251692,3.15
1764746551.258058,3.14
1764746551.2643058,2.97
1764746551.270588,1.72
1764746551.2767448,0.96
1764746551.2831318,1.4
1764746551.2893372,1.73
1764746551.295432,1.73
1764746551.301671,1.68
1764746551.307982,1.73
1764746551.3143349,1.74
1764746551.320523,1.75
1764746551.3267589,1.77
1764746551.333081,1.8
1764746551.339561,1.78
1764746551.345419,1.7
1764746551.351684,1.84
1764746551.357916,1.85
1764746551.364251,1.75
1764746551.370444,1.9
1764746551.376679,1.9
1764746551.3830369,1.82
1764746551.3893702,1.98
1764746551.395412,1.91
1764746551.401688,1.96
1764746551.4079082,1.97
1764746551.414253,1.96
1764746551.4205718,2.09
1764746551.4266088,2.0
1764746551.433171,1.83
1764746551.4392362,2.03
1764746551.445444,2.03
1764746551.451652,1.93
1764746551.457865,1.8
1764746551.464302,1.7
1764746551.470576,1.88
1764746551.476778,1.78
1764746551.482841,1.68
1764746551.489283,1.91
1764746551.4953852,1.77
1764746551.50172,1.52
1764746551.5079198,1.68
1764746551.514318,1.84
1764746551.5205572,1.78
1764746551.526674,1.65
1764746551.532973,1.59
1764746551.539316,1.75
1764746551.545452,1.89
1764746551.551679,1.73
1764746551.557995,1.7
1764746551.564236,1.74
1764746551.5706198,1.73
1764746551.576808,1.65
1764746551.582894,1.68
1764746551.589616,1.78
1764746551.595499,1.78
1764746551.60171,1.82
1764746551.608006,1.8
1764746551.614238,1.9
1764746551.62059,2.14
1764746551.626762,2.05
1764746551.632977,1.85
1764746551.639552,1.84
1764746551.645438,1.71
1764746551.651598,1.6
1764746551.657911,1.6
1764746551.664243,1.45
1764746551.670634,1.35
1764746551.6767402,1.5
1764746551.6830149,1.5
1764746551.689344,1.35
1764746551.69548,1.32
1764746551.701747,1.53
1764746551.7079291,1.48
1764746551.714169,1.28
1764746551.720583,1.28
1764746551.7266612,1.49
1764746551.732864,1.73
1764746551.739289,2.43
1764746551.750879,3.09
1764746551.766109,2.96
1764746551.795246,2.03
1764746551.800284,0.82
1764746551.80041,0.97
1764746551.8005068,1.44
1764746551.8006,1.31
1764746551.800702,1.09
1764746551.8008032,1.35
1764746551.804257,1.56
1764746551.816996,1.47
1764746551.828213,1.44
1764746551.8284218,1.49
1764746551.828586,1.55
1764746551.833358,1.65
1764746551.839267,1.7
1764746551.845929,1.67
1764746551.853298,1.72
1764746551.858042,1.76
1764746551.8641589,1.85
1764746551.873583,1.91
1764746551.876649,1.93
1764746551.8830662,1.98
1764746551.889222,2.02
1764746551.895485,2.06
1764746551.9016378,2.16
1764746551.90794,2.21
1764746551.9141812,2.24
1764746551.920343,2.41
1764746551.9265852,2.42
1764746551.932948,2.38
1764746551.939668,2.46
1764746551.945299,2.39
1764746551.9515772,2.43
1764746551.957849,2.49
1764746551.964072,2.39
1764746551.970347,2.44
1764746551.976554,2.58
1764746551.982847,2.55
1764746551.989228,2.54
1764746551.995285,2.47
1764746552.001638,2.61
1764746552.007944,2.71
1764746552.0141282,2.66
1764746552.020301,2.64
1764746552.02658,2.74
1764746552.0328572,2.83
1764746552.040213,2.84
1764746552.0453591,2.78
1764746552.0516071,2.89
1764746552.057802,2.96
1764746552.064582,2.96
1764746552.070344,3.02
1764746552.076559,3.02
1764746552.082815,3.1
1764746552.089077,3.15
1764746552.095361,3.15
1764746552.1015182,3.16
1764746552.1078742,3.16
1764746552.114047,3.17
1764746552.120238,3.17
1764746552.1265469,3.17
1764746552.1328058,3.17
1764746552.1392572,3.17
1764746552.145463,3.17
1764746552.151485,3.16
1764746552.157803,3.16
1764746552.1640792,3.16
1764746552.170318,3.16
1764746552.176518,3.16
1764746552.182801,3.16
1764746552.189161,3.17
1764746552.195355,3.17
1764746552.201631,3.16
1764746552.207871,3.17
1764746552.214108,3.17
1764746552.220396,3.17
1764746552.226681,3.17
1764746552.232844,3.17
1764746552.239164,3.18
1764746552.245363,3.18
1764746552.25158,3.18
1764746552.25774,3.17
1764746552.26405,3.17
1764746552.27036,3.17
1764746552.276562,3.17
1764746552.282753,3.17
1764746552.289676,3.17
1764746552.2955468,3.17
1764746552.301514,3.17
1764746552.3077838,3.17
1764746552.31406,3.17
1764746552.320283,3.17
1764746552.3266182,3.17
1764746552.332778,3.17
1764746552.33951,3.17
1764746552.345276,3.17
1764746552.351514,3.17
1764746552.357783,3.17
1764746552.36406,3.17
1764746552.370325,3.17
1764746552.376639,3.17
1764746552.3827672,3.17
1764746552.3895628,3.17
1764746552.395322,3.17
1764746552.40149,3.17
1764746552.407795,3.17
1764746552.4140348,3.17
1764746552.420324,3.17
1764746552.426487,3.17
1764746552.432696,3.17
1764746552.439036,3.17
1764746552.445247,3.16
1764746552.4514382,3.15
1764746552.457764,3.13
1764746552.463933,2.93
1764746552.4703202,2.85
1764746552.4765608,2.82
1764746552.48273,2.84
1764746552.489463,2.91
1764746552.4952571,2.74
1764746552.5015209,2.72
1764746552.507743,2.77
1764746552.5140858,2.69
1764746552.520476,2.75
1764746552.526525,2.61
1764746552.532726,2.53
