timestamp,ecg_value
1764746492.539518,2.11
1764746492.545758,2.08
1764746492.552019,2.17
1764746492.558232,2.19
1764746492.5647192,2.07
1764746492.57088,2.12
1764746492.577032,2.27
1764746492.5833118,2.17
1764746492.589597,2.28
1764746492.595808,2.19
1764746492.6020212,1.98
1764746492.608246,2.22
1764746492.614621,2.35
1764746492.620779,2.17
1764746492.627008,1.86
1764746492.633375,1.72
1764746492.639559,1.88
1764746492.645968,1.88
1764746492.6521668,1.7
1764746492.6583,1.78
1764746492.664769,1.8
1764746492.6708438,1.81
1764746492.677136,1.85
1764746492.683617,1.8
1764746492.689608,1.72
1764746492.695915,1.47
1764746492.702055,1.42
1764746492.708246,1.53
1764746492.7146208,1.38
1764746492.720787,1.57
1764746492.727227,1.71
1764746492.733333,1.62
1764746492.739531,1.77
1764746492.745864,1.87
1764746492.7521589,1.88
1764746492.758393,1.88
1764746492.76469,1.71
1764746492.77081,1.39
1764746492.7771049,1.59
1764746492.7833862,1.82
1764746492.789663,2.85
1764746492.795852,3.14
1764746492.802112,2.58
1764746492.80827,1.32
1764746492.8145962,1.11
1764746492.820854,1.69
1764746492.8270369,1.58
1764746492.833538,1.41
1764746492.839684,1.35
1764746492.845839,1.35
1764746492.852164,1.18
1764746492.858271,1.03
1764746492.864547,1.04
1764746492.87084,1.1
1764746492.876978,1.3
1764746492.8834171,1.34
1764746492.8897622,1.3
1764746492.895948,1.44
1764746492.902099,1.5
1764746492.9085171,1.48
1764746492.91462,1.5
1764746492.920755,1.55
1764746492.9269571,1.66
1764746492.9333131,1.65
1764746492.9394062,1.54
1764746492.945775,1.64
1764746492.951916,1.68
1764746492.958184,1.63
1764746492.964533,1.52
1764746492.970736,1.53
1764746492.976883,1.69
1764746492.98318,1.69
1764746492.989571,1.74
1764746492.9957209,1.63
1764746493.0020711,1.63
1764746493.008308,1.84
1764746493.014553,1.61
1764746493.020714,1.49
1764746493.026958,1.62
1764746493.033337,1.37
1764746493.0397031,1.27
1764746493.045842,1.25
1764746493.0521688,1.17
1764746493.05829,1.23
1764746493.064497,1.26
1764746493.070803,1.36
1764746493.077076,1.18
1764746493.083207,0.95
1764746493.089443,0.98
1764746493.095876,1.61
1764746493.102172,2.12
1764746493.108348,1.98
1764746493.1145751,1.77
1764746493.120736,1.86
1764746493.12707,2.1
1764746493.1332211,2.19
1764746493.139462,2.24
1764746493.145789,2.25
1764746493.152089,2.31
1764746493.1582148,2.45
1764746493.164469,2.29
1764746493.170684,1.92
1764746493.1770098,1.83
1764746493.1836538,1.8
1764746493.18958,1.74
1764746493.195808,1.79
1764746493.2020009,1.68
1764746493.208192,1.57
1764746493.214575,1.44
1764746493.220702,1.51
1764746493.226977,1.45
1764746493.23374,1.11
1764746493.2395148,1.03
1764746493.245857,1.04
1764746493.252148,0.98
1764746493.258198,1.33
1764746493.264659,1.89
1764746493.270599,2.44
1764746493.2769191,2.43
1764746493.283295,1.59
1764746493.289609,0.78
1764746493.295823,0.98
1764746493.302044,1.31
1764746493.3082502,1.34
1764746493.314532,1.46
1764746493.320659,1.59
1764746493.326882,1.81
1764746493.3336802,1.78
1764746493.339603,1.81
1764746493.345666,1.67
1764746493.352017,1.29
1764746493.358165,1.17
1764746493.364575,1.43
1764746493.370622,1.36
1764746493.377113,1.22
1764746493.383307,1.05
1764746493.389521,0.76
1764746493.396065,0.81
1764746493.402014,1.08
1764746493.4081862,1.09
1764746493.414402,1.16
1764746493.420727,1.31
1764746493.426908,1.49
1764746493.433175,1.8
1764746493.439481,2.09
1764746493.445899,2.45
1764746493.45195,2.6
1764746493.4580932,2.44
1764746493.4654982,2.16
1764746493.4705868,1.98
1764746493.476927,2.0
1764746493.4831622,1.88
1764746493.489364,1.77
1764746493.49582,1.87
1764746493.502016,1.85
1764746493.508186,1.69
1764746493.51551,1.6
1764746493.520653,1.53
1764746493.52697,1.49
1764746493.533476,1.5
1764746493.539397,1.49
1764746493.545722,1.39
1764746493.552052,1.28
1764746493.558122,1.35
1764746493.564512,1.21
1764746493.5706408,1.18
1764746493.576763,1.14
1764746493.583231,0.97
1764746493.589303,1.02
1764746493.5955908,1.14
1764746493.601829,1.12
1764746493.60807,1.25
1764746493.6144829,1.42
1764746493.62076,1.56
1764746493.626848,1.6
1764746493.633153,1.52
1764746493.639369,1.58
1764746493.645631,1.74
1764746493.6518211,1.59
1764746493.658089,1.32
1764746493.665024,1.49
1764746493.670542,1.71
1764746493.6768022,1.96
1764746493.68311,2.38
1764746493.689302,2.43
1764746493.695599,2.06
1764746493.7017632,1.59
1764746493.708069,1.74
1764746493.715304,2.07
1764746493.720599,2.05
1764746493.726971,2.24
1764746493.733204,2.67
1764746493.73934,3.15
1764746493.7458282,3.17
1764746493.7519329,3.16
1764746493.7581592,3.15
1764746493.764535,1.96
1764746493.7706518,0.74
1764746493.776861,1.34
1764746493.783167,1.64
1764746493.789464,1.23
1764746493.795714,1.13
1764746493.801818,1.46
1764746493.808031,1.5
1764746493.815351,1.14
1764746493.8205671,1.28
1764746493.82682,1.35
1764746493.83303,1.0
1764746493.839305,0.94
1764746493.845508,1.21
1764746493.851875,1.01
1764746493.857922,0.83
1764746493.8643,1.16
1764746493.8704782,1.55
1764746493.876755,1.57
1764746493.883052,1.44
1764746493.889235,1.44
1764746493.8965278,1.58
1764746493.902655,1.72
1764746493.913237,2.07
1764746493.926707,1.97
1764746493.953177,1.76
1764746493.9637032,2.02
1764746493.963882,1.85
1764746493.964031,1.56
1764746493.9681191,1.77
1764746493.968312,1.19
1764746493.9684858,0.97
1764746493.968638,1.08
1764746493.975878,0.93
1764746493.976757,1.33
1764746493.983457,1.65
1764746493.989567,1.55
1764746493.995709,1.43
1764746494.005638,1.55
1764746494.007993,1.61
1764746494.0148082,1.62
1764746494.020465,1.47
1764746494.026776,1.29
1764746494.033021,1.33
1764746494.039474,1.59
1764746494.045514,1.76
1764746494.0519,1.67
1764746494.058093,1.64
1764746494.06436,1.58
1764746494.07059,1.87
1764746494.076751,2.03
1764746494.0829508,1.8
1764746494.089281,1.82
1764746494.095454,1.81
1764746494.101729,1.55
1764746494.107966,1.61
1764746494.1157749,1.53
1764746494.120448,1.33
1764746494.126754,1.22
1764746494.13302,1.04
1764746494.139262,1.14
1764746494.145783,1.07
1764746494.151733,0.95
1764746494.1580129,1.15
1764746494.16452,1.18
1764746494.170515,1.16
1764746494.176727,1.29
1764746494.1830568,1.26
1764746494.189218,1.47
1764746494.195518,1.51
1764746494.20173,1.42
1764746494.208101,2.0
1764746494.2143948,2.87
1764746494.220524,2.95
1764746494.226759,2.49
1764746494.232975,1.17
1764746494.2391858,0.32
1764746494.245451,0.93
1764746494.251791,1.1
1764746494.2580311,1.21
1764746494.264747,1.61
1764746494.270507,1.67
1764746494.276691,1.47
1764746494.283029,1.27
1764746494.289151,1.4
1764746494.295546,1.66
1764746494.30164,1.67
1764746494.3080351,1.65
1764746494.314796,1.66
1764746494.320402,1.62
1764746494.3268118,1.65
1764746494.333025,1.68
1764746494.3391192,1.54
1764746494.345512,1.42
1764746494.351646,1.25
1764746494.357836,1.04
1764746494.364464,1.09
1764746494.3704069,1.3
1764746494.376608,1.73
1764746494.382956,1.92
1764746494.389157,1.67
1764746494.395424,1.47
1764746494.401676,1.29
1764746494.407976,1.28
1764746494.415261,1.25
1764746494.420436,1.25
1764746494.4266932,1.32
1764746494.4332302,1.25
1764746494.439147,1.31
1764746494.445604,1.51
1764746494.451668,1.69
1764746494.458101,1.66
1764746494.4658,1.6
1764746494.470423,1.6
1764746494.476647,1.78
1764746494.483274,1.78
1764746494.489166,1.93
1764746494.495906,2.26
1764746494.501667,2.3
1764746494.5078988,2.15
1764746494.517243,2.06
1764746494.52045,1.92
1764746494.5266292,1.82
1764746494.533054,1.91
1764746494.539186,1.73
1764746494.545394,1.32
1764746494.5516648,1.32
1764746494.557919,1.34
1764746494.566539,1.13
1764746494.570425,1.2
1764746494.576646,2.13
1764746494.583033,2.72
1764746494.589144,1.91
1764746494.595563,1.6
1764746494.601718,1.59
1764746494.607877,1.39
1764746494.614558,1.21
1764746494.620384,0.96
1764746494.626608,0.88
1764746494.632917,0.92
1764746494.639209,1.01
1764746494.645355,1.24
1764746494.651626,1.16
1764746494.657869,1.17
1764746494.665174,1.32
1764746494.670285,1.37
1764746494.6765928,1.57
1764746494.68286,2.25
1764746494.689117,3.1
1764746494.695284,3.13
1764746494.701594,2.75
1764746494.7078469,1.32
1764746494.714134,0.64
1764746494.720523,1.25
1764746494.726633,1.41
1764746494.732844,1.08
1764746494.739279,0.97
1764746494.745844,1.09
1764746494.7515872,1.1
1764746494.757809,1.19
1764746494.764459,1.11
1764746494.7704031,1.17
1764746494.776578,1.39
1764746494.78283,1.34
1764746494.7890549,1.3
1764746494.795309,1.35
1764746494.801549,1.33
1764746494.807806,1.29
1764746494.814516,1.36
1764746494.820344,1.45
1764746494.826601,1.47
1764746494.833187,1.45
1764746494.839149,1.34
1764746494.845473,1.15
1764746494.851573,1.08
1764746494.857878,1.55
1764746494.864278,2.08
1764746494.870281,2.13
1764746494.876595,1.85
1764746494.882904,1.68
1764746494.889154,1.93
1764746494.8953369,2.23
1764746494.9014778,2.34
1764746494.907776,2.34
1764746494.914322,2.39
1764746494.920223,2.05
1764746494.926762,1.75
1764746494.932895,1.7
1764746494.939196,1.6
1764746494.945281,1.33
1764746494.951651,1.23
1764746494.957813,1.23
1764746494.964643,1.2
1764746494.970377,1.18
1764746494.976573,1.56
1764746494.982792,1.72
1764746494.989038,1.51
1764746494.995473,1.54
1764746495.00165,1.49
1764746495.00777,1.27
1764746495.014272,1.23
1764746495.020353,1.35
1764746495.026669,1.04
1764746495.03281,0.83
1764746495.038926,0.95
1764746495.045433,1.29
1764746495.051521,1.49
1764746495.057742,1.62
1764746495.064619,1.8
1764746495.070341,1.87
1764746495.07669,2.24
1764746495.083008,2.45
1764746495.08902,2.35
1764746495.095299,2.44
1764746495.101589,2.41
1764746495.1077042,1.77
1764746495.1141171,1.73
1764746495.120252,2.12
1764746495.1266408,1.71
1764746495.13284,1.0
1764746495.139074,0.9
1764746495.145254,0.88
1764746495.1515148,1.67
1764746495.157748,2.63
1764746495.1640582,2.99
1764746495.170176,2.27
1764746495.176527,0.96
1764746495.1826718,0.41
1764746495.1889448,0.87
1764746495.195303,1.39
1764746495.201534,1.45
1764746495.207753,1.55
1764746495.214103,1.85
1764746495.22033,1.95
1764746495.226508,1.9
1764746495.232706,1.79
1764746495.239021,1.79
1764746495.245329,1.82
1764746495.2515,1.73
1764746495.257772,1.65
1764746495.264126,1.57
1764746495.270198,1.52
1764746495.276456,1.56
1764746495.282694,1.5
1764746495.288942,1.52
1764746495.2953029,1.51
1764746495.301383,1.51
1764746495.30774,1.52
1764746495.314087,1.35
1764746495.320246,1.45
1764746495.326581,1.58
1764746495.3326771,1.47
1764746495.338954,1.38
1764746495.345276,1.46
1764746495.3514712,1.58
1764746495.357624,1.82
1764746495.363958,1.76
1764746495.370134,1.87
1764746495.3764322,1.77
1764746495.382719,1.63
1764746495.3889909,1.69
1764746495.3952231,1.92
1764746495.407556,2.11
1764746495.450216,2.14
1764746495.4584708,1.78
1764746495.468892,1.6
1764746495.471713,1.7
1764746495.474231,1.54
1764746495.486607,1.25
1764746495.489099,1.45
1764746495.4893708,1.79
1764746495.490356,1.76
1764746495.492277,1.57
1764746495.4925609,1.36
1764746495.492798,1.75
1764746495.493136,2.15
1764746495.49341,2.15
1764746495.4997451,2.34
1764746495.501569,2.48
1764746495.5080152,2.31
1764746495.51394,2.15
1764746495.5203252,1.83
1764746495.526576,1.58
1764746495.532908,1.32
1764746495.5390568,0.99
1764746495.545279,0.97
1764746495.5515509,0.98
1764746495.557763,1.12
1764746495.564203,1.57
1764746495.570304,1.79
1764746495.576482,1.92
1764746495.5887208,1.45
1764746495.589216,1.26
1764746495.59986,1.43
1764746495.6014478,1.37
1764746495.607743,1.39
1764746495.6157298,1.75
1764746495.62016,1.98
1764746495.626451,2.51
1764746495.632695,3.14
1764746495.6388931,3.09
1764746495.645219,1.88
1764746495.651423,0.7
1764746495.6575942,0.87
1764746495.6640089,1.41
1764746495.6701062,1.52
1764746495.676333,1.31
1764746495.682633,1.2
1764746495.68891,1.42
1764746495.6951392,1.77
1764746495.701343,1.94
1764746495.7076218,1.79
1764746495.713946,1.18
1764746495.7201228,0.69
1764746495.726441,0.82
1764746495.732565,0.86
1764746495.738844,0.83
1764746495.7451,1.09
1764746495.751387,1.24
1764746495.7576032,1.22
1764746495.763979,0.91
1764746495.7700748,0.87
1764746495.776383,1.34
1764746495.78255,1.6
1764746495.7888598,1.6
1764746495.795094,1.88
1764746495.8013551,2.07
1764746495.807632,2.07
1764746495.813796,1.96
1764746495.820129,1.87
1764746495.826514,1.87
1764746495.832649,1.77
1764746495.8387709,1.62
1764746495.8451269,1.63
1764746495.85134,1.57
1764746495.8575308,1.54
1764746495.863828,1.6
1764746495.87007,1.55
1764746495.8763552,1.6
1764746495.882526,1.57
1764746495.8888571,1.53
1764746495.8951,1.55
1764746495.9013472,1.39
1764746495.90759,1.5
1764746495.913936,1.61
1764746495.920028,1.5
1764746495.926314,1.64
1764746495.9325671,1.58
1764746495.938894,1.56
1764746495.94506,1.72
1764746495.951277,1.79
1764746495.95758,1.97
1764746495.963916,1.92
1764746495.9701052,1.88
1764746495.976421,1.98
1764746495.982616,1.77
1764746495.988854,1.84
1764746495.9950762,1.74
1764746496.001308,1.26
1764746496.007541,1.02
1764746496.013928,1.03
1764746496.020007,1.5
1764746496.0262651,1.85
1764746496.032434,1.69
1764746496.038676,1.5
1764746496.045023,1.44
1764746496.05134,1.38
1764746496.057568,1.49
1764746496.063928,1.78
1764746496.07012,1.75
1764746496.076328,1.63
1764746496.082519,1.79
1764746496.088794,1.99
1764746496.095061,2.77
1764746496.101268,3.07
1764746496.107504,2.7
1764746496.113846,1.53
1764746496.120072,0.31
1764746496.1262798,0.48
1764746496.1324742,1.09
1764746496.1388202,1.12
1764746496.14508,1.3
1764746496.151221,1.57
1764746496.157504,1.53
1764746496.1638,1.5
1764746496.16994,1.09
1764746496.17627,0.85
1764746496.182452,1.03
1764746496.188758,1.1
1764746496.195037,0.93
1764746496.20124,1.02
1764746496.207621,1.28
1764746496.213741,1.42
1764746496.220194,1.63
1764746496.2262242,1.63
1764746496.232476,1.79
1764746496.238804,1.74
1764746496.245007,1.83
1764746496.251213,1.77
1764746496.2574852,1.87
1764746496.263857,2.02
1764746496.269943,2.16
1764746496.276271,2.07
1764746496.282457,1.8
1764746496.2888,1.61
1764746496.2950552,1.89
1764746496.301247,1.9
1764746496.3075042,1.4
1764746496.3137438,1.37
1764746496.319956,1.21
1764746496.326228,0.96
1764746496.332417,0.93
1764746496.338656,0.78
1764746496.345142,0.9
1764746496.35119,1.07
1764746496.357425,0.9
1764746496.363727,1.18
1764746496.3699698,1.57
1764746496.3761978,1.89
1764746496.382333,2.02
1764746496.388643,1.88
1764746496.3949702,1.94
1764746496.401142,1.8
1764746496.407489,1.66
1764746496.4138,1.74
1764746496.419944,1.68
1764746496.426261,1.65
1764746496.432437,1.66
1764746496.438677,1.64
1764746496.444962,1.58
1764746496.451169,1.45
1764746496.457459,1.56
1764746496.4637408,1.53
1764746496.469944,1.24
1764746496.476194,1.26
1764746496.482411,1.27
1764746496.488618,1.22
1764746496.494949,1.26
1764746496.5011368,1.2
1764746496.507497,1.35
1764746496.513833,1.44
1764746496.519872,1.38
1764746496.526175,1.54
1764746496.5324,1.4
1764746496.538715,1.36
1764746496.544984,1.55
1764746496.551359,1.48
1764746496.557568,2.17
1764746496.564055,3.11
1764746496.570017,3.14
1764746496.57634,2.98
1764746496.5823832,1.83
1764746496.5886238,1.25
1764746496.595332,1.59
1764746496.601245,1.72
1764746496.607481,1.56
1764746496.6136398,1.67
1764746496.619937,2.03
1764746496.626378,1.98
1764746496.632442,1.96
1764746496.638619,2.02
1764746496.645115,1.8
1764746496.651241,1.56
1764746496.657464,1.6
1764746496.6636631,1.7
1764746496.669971,1.68
1764746496.676268,1.75
1764746496.6825511,1.87
1764746496.6886458,1.68
1764746496.6950889,1.34
1764746496.7011058,1.47
1764746496.707384,1.42
1764746496.713726,1.4
1764746496.71991,1.69
1764746496.726096,2.1
1764746496.732387,2.02
1764746496.738581,1.5
1764746496.744983,1.63
1764746496.751149,1.66
1764746496.757382,1.62
1764746496.763923,1.51
1764746496.769968,1.39
1764746496.7762492,1.61
1764746496.782697,1.35
1764746496.7887528,1.32
1764746496.7954571,1.43
1764746496.801229,1.43
1764746496.807453,1.33
1764746496.813664,1.48
1764746496.8199449,1.63
1764746496.82615,1.58
1764746496.832331,1.44
1764746496.8385432,1.62
1764746496.8449678,2.17
1764746496.851168,1.86
1764746496.857474,1.87
1764746496.86366,2.19
1764746496.86998,2.07
1764746496.876129,2.11
1764746496.8823092,2.34
1764746496.888578,2.45
1764746496.8951302,2.61
1764746496.9011898,2.19
1764746496.907417,1.5
1764746496.913562,1.5
1764746496.9197938,1.52
1764746496.9261,1.44
1764746496.932354,1.53
1764746496.938543,1.31
1764746496.944984,1.07
1764746496.951178,1.15
1764746496.957437,1.03
1764746496.966648,0.88
1764746497.0528052,0.99
1764746497.053342,1.18
1764746497.053479,1.38
1764746497.053577,1.39
1764746497.053676,1.64
1764746497.053805,1.62
1764746497.053931,1.52
1764746497.05414,1.53
1764746497.05442,1.56
1764746497.0545542,2.19
1764746497.054682,3.12
1764746497.054813,3.14
1764746497.0549471,3.12
1764746497.055578,2.07
1764746497.0574322,0.99
1764746497.063585,1.32
1764746497.081218,1.54
1764746497.081546,1.44
1764746497.082707,1.23
1764746497.088752,1.3
1764746497.096907,1.45
1764746497.101772,1.35
1764746497.107318,1.33
1764746497.113724,1.39
1764746497.12007,1.45
1764746497.1260931,1.62
1764746497.132393,1.48
1764746497.138578,1.47
1764746497.144941,1.72
1764746497.15107,1.67
1764746497.157311,1.7
1764746497.163626,1.78
1764746497.169763,1.99
1764746497.176117,2.17
1764746497.182243,1.73
1764746497.18854,1.42
1764746497.1949482,1.56
1764746497.201091,1.72
1764746497.207285,2.03
1764746497.213512,2.18
1764746497.219828,2.12
1764746497.226002,1.99
1764746497.232234,1.78
1764746497.238538,1.55
1764746497.244799,1.59
1764746497.250981,1.64
1764746497.25726,1.59
1764746497.263533,1.54
1764746497.269789,1.55
1764746497.276074,1.72
1764746497.282246,1.5
1764746497.288466,1.04
1764746497.294833,0.96
1764746497.301062,1.19
1764746497.3072052,1.47
1764746497.3135328,1.69
1764746497.319704,1.95
1764746497.3260522,1.82
1764746497.332219,1.58
1764746497.338478,1.38
1764746497.3449,1.48
1764746497.350973,1.34
1764746497.357257,1.17
1764746497.363521,1.08
1764746497.369802,1.0
1764746497.375968,1.26
1764746497.3822222,1.26
1764746497.388448,0.99
1764746497.3948002,1.37
1764746497.400959,1.52
1764746497.407177,1.32
1764746497.41365,1.29
1764746497.4196942,1.52
1764746497.425987,1.62
1764746497.43224,1.5
1764746497.438474,1.66
1764746497.445418,1.89
1764746497.450881,1.69
1764746497.457183,1.62
1764746497.463564,1.83
1764746497.469803,1.53
1764746497.4761422,1.27
1764746497.48229,1.1
1764746497.488642,0.87
1764746497.4949188,1.35
1764746497.50098,1.97
1764746497.507192,1.82
1764746497.513441,1.13
1764746497.519721,0.0
1764746497.52596,0.17
1764746497.532205,0.85
1764746497.538419,0.49
1764746497.544775,0.24
1764746497.550857,0.66
1764746497.557179,0.92
1764746497.563554,0.95
1764746497.5697558,0.9
1764746497.57599,0.83
1764746497.582224,0.77
1764746497.588518,0.93
1764746497.594794,1.01
1764746497.600995,0.95
1764746497.607181,1.11
1764746497.613592,1.15
1764746497.619715,1.03
1764746497.6260118,1.19
1764746497.6321962,1.3
1764746497.638411,1.15
1764746497.6451871,1.25
1764746497.65105,1.34
1764746497.657186,1.22
1764746497.663418,1.26
1764746497.669722,1.41
1764746497.676183,1.36
1764746497.6821198,1.3
1764746497.688584,1.49
1764746497.694711,1.61
1764746497.700889,1.57
1764746497.7071512,1.52
1764746497.713529,1.57
1764746497.7198029,1.63
1764746497.725914,1.73
1764746497.73216,1.66
1764746497.738418,1.75
1764746497.74481,1.82
1764746497.750867,1.78
1764746497.757122,2.09
1764746497.763552,1.9
1764746497.769768,1.15
1764746497.776386,0.97
1764746497.78227,1.09
1764746497.78838,1.03
1764746497.79478,1.61
1764746497.800881,1.87
1764746497.807133,1.55
1764746497.813432,1.49
1764746497.819587,1.57
1764746497.825897,1.79
1764746497.832118,1.91
1764746497.838528,1.87
1764746497.8449411,1.81
1764746497.850962,1.9
1764746497.857146,1.96
1764746497.863643,1.81
1764746497.869744,1.55
1764746497.875987,1.56
1764746497.882186,1.45
1764746497.888566,1.34
1764746497.894701,1.74
1764746497.900887,2.0
1764746497.907066,1.95
1764746497.913375,1.89
1764746497.919654,1.82
1764746497.925996,1.78
1764746497.932074,1.94
1764746497.938406,1.78
1764746497.944741,1.34
1764746497.950909,1.62
1764746497.957085,2.54
1764746497.9634078,3.03
1764746497.969729,2.77
1764746497.975952,2.25
1764746497.982131,1.37
1764746497.988445,1.21
1764746497.994723,1.42
1764746498.0008352,1.49
1764746498.007248,1.51
1764746498.013459,1.74
1764746498.0197508,1.71
1764746498.025961,1.56
1764746498.032162,1.81
1764746498.038445,2.13
1764746498.044668,2.07
1764746498.050833,2.01
1764746498.057158,1.93
1764746498.063423,1.3
1764746498.06971,1.33
1764746498.076122,1.71
1764746498.08217,1.66
1764746498.0882938,1.08
1764746498.09476,0.67
1764746498.100917,1.24
1764746498.1070578,1.37
1764746498.113324,1.31
1764746498.119561,1.35
1764746498.12591,1.24
1764746498.132018,1.3
1764746498.138272,1.34
1764746498.144675,1.31
1764746498.150818,1.52
1764746498.157193,1.46
1764746498.163442,1.35
1764746498.169657,1.4
1764746498.175926,1.51
1764746498.182177,1.44
1764746498.188298,1.27
1764746498.194624,1.5
1764746498.200813,1.56
1764746498.20708,1.53
1764746498.213557,1.61
1764746498.219575,1.59
1764746498.225856,1.62
1764746498.232019,1.54
1764746498.238312,1.52
1764746498.244838,1.7
1764746498.250815,1.58
1764746498.257039,1.51
1764746498.263511,1.58
1764746498.2696269,1.65
1764746498.2759428,1.86
1764746498.282094,1.76
1764746498.288301,1.56
1764746498.294637,1.88
1764746498.300995,1.99
1764746498.307102,2.13
1764746498.313266,2.27
1764746498.319679,2.12
1764746498.3259609,2.2
1764746498.332044,2.34
1764746498.338461,2.11
1764746498.3449018,2.36
1764746498.350881,2.41
1764746498.357092,1.48
1764746498.363511,1.34
1764746498.369581,1.45
1764746498.375891,1.44
1764746498.38216,1.56
1764746498.388347,1.53
1764746498.394592,1.56
1764746498.4007838,1.52
1764746498.407091,1.45
1764746498.4225368,1.39
1764746498.434335,1.76
1764746498.440247,2.59
1764746498.452664,3.06
1764746498.47727,2.75
1764746498.4774232,1.82
1764746498.4775512,0.92
1764746498.477658,0.95
1764746498.477769,1.33
1764746498.4778922,1.48
1764746498.478022,1.6
1764746498.48591,1.77
1764746498.500017,1.66
1764746498.5040529,1.61
1764746498.504192,1.65
1764746498.507064,1.67
1764746498.513268,1.7
1764746498.523988,1.57
1764746498.529454,1.49
1764746498.53198,1.65
1764746498.538295,1.6
1764746498.544786,1.5
1764746498.550786,1.52
1764746498.5570922,1.65
1764746498.563293,1.72
1764746498.5697238,1.93
1764746498.575836,2.01
1764746498.582171,2.01
1764746498.588297,1.87
1764746498.5947142,2.1
1764746498.60077,2.28
1764746498.607021,2.25
1764746498.6132202,2.22
1764746498.6194391,2.06
1764746498.625786,2.08
1764746498.631946,2.02
1764746498.6381629,2.05
1764746498.645088,2.12
1764746498.650721,1.97
1764746498.656932,1.82
1764746498.6631832,2.31
1764746498.669568,2.18
1764746498.676026,1.3
1764746498.681974,1.03
1764746498.688203,0.99
1764746498.694635,0.61
1764746498.7007449,0.29
1764746498.706959,0.0
1764746498.713273,0.03
1764746498.7195468,0.5
1764746498.725743,0.74
1764746498.731948,1.03
1764746498.738143,1.5
1764746498.744541,2.03
1764746498.7507892,2.37
1764746498.757022,2.44
1764746498.763274,2.58
1764746498.769469,2.58
1764746498.775687,2.32
1764746498.781942,2.23
1764746498.7882318,2.1
1764746498.794516,1.94
1764746498.800698,1.66
1764746498.806935,1.59
1764746498.813289,1.68
1764746498.819369,1.49
1764746498.825647,1.33
1764746498.832012,1.35
1764746498.8381948,1.28
1764746498.844565,1.2
1764746498.850657,1.08
1764746498.85703,1.1
1764746498.863331,1.16
1764746498.86946,1.17
1764746498.875726,1.31
1764746498.882001,1.6
1764746498.888364,2.65
1764746498.894472,3.14
1764746498.900684,3.14
1764746498.906971,2.95
1764746498.91327,1.66
1764746498.919445,1.48
1764746498.925699,2.21
1764746498.9318662,2.2
1764746498.938175,1.74
1764746498.944669,1.8
1764746498.950832,1.73
1764746498.956991,1.37
1764746498.963184,1.22
1764746498.969381,1.0
1764746498.9756732,0.68
1764746498.9821498,0.68
1764746498.988228,0.94
1764746498.994571,1.58
1764746499.0006871,1.46
1764746499.006988,1.63
1764746499.013151,2.46
1764746499.019587,1.64
1764746499.025723,0.81
1764746499.031945,1.3
1764746499.038092,1.54
1764746499.044441,1.32
1764746499.050569,1.39
1764746499.056818,1.6
1764746499.063173,1.55
1764746499.069844,1.64
1764746499.076198,1.65
1764746499.081894,1.52
1764746499.088245,1.62
1764746499.095414,1.73
1764746499.10068,1.64
1764746499.1069791,1.43
1764746499.1131468,1.5
1764746499.119405,1.48
1764746499.12589,1.28
1764746499.131806,1.13
1764746499.1381838,1.07
1764746499.144406,1.12
1764746499.150581,0.89
1764746499.156897,0.64
1764746499.163132,0.53
1764746499.169464,0.48
1764746499.176091,0.71
1764746499.181889,0.91
1764746499.1881049,1.05
1764746499.194442,1.3
1764746499.200695,1.51
1764746499.206887,1.69
1764746499.213206,2.0
1764746499.219637,2.04
1764746499.225714,1.95
1764746499.231883,2.21
1764746499.238152,2.4
1764746499.24446,2.26
1764746499.250636,1.96
1764746499.256882,1.93
1764746499.263148,1.93
1764746499.269304,1.49
1764746499.275619,1.02
1764746499.281831,1.21
1764746499.288046,1.11
1764746499.294337,0.61
1764746499.30051,0.43
1764746499.30679,0.42
1764746499.313083,0.69
1764746499.319358,0.99
1764746499.325697,0.84
1764746499.331845,0.63
1764746499.338103,0.43
1764746499.344382,0.6
1764746499.350513,1.7
1764746499.356888,2.83
1764746499.363028,3.14
1764746499.3693151,3.06
1764746499.375675,2.11
1764746499.381781,1.18
1764746499.388049,1.3
1764746499.3942962,1.6
1764746499.400685,1.54
1764746499.406946,1.43
1764746499.413122,1.53
1764746499.419383,1.55
1764746499.425656,1.71
1764746499.431763,1.83
1764746499.4381282,1.55
1764746499.444908,1.54
1764746499.4505029,1.54
1764746499.456757,1.48
1764746499.463088,1.53
1764746499.469355,1.52
1764746499.475571,1.56
1764746499.481733,1.56
1764746499.488265,1.54
1764746499.494689,1.59
1764746499.500724,1.55
1764746499.506859,1.56
1764746499.513282,1.76
1764746499.519327,1.81
1764746499.525553,1.81
1764746499.5318809,1.89
1764746499.5381272,1.86
1764746499.544381,1.95
1764746499.550545,1.95
1764746499.556851,1.73
1764746499.563074,1.78
1764746499.569365,1.77
1764746499.5757,1.59
1764746499.581792,1.46
1764746499.5881212,1.45
1764746499.594325,1.65
1764746499.600524,1.72
1764746499.606783,1.64
1764746499.613072,1.63
1764746499.6192808,1.48
1764746499.625496,1.48
1764746499.631849,1.7
1764746499.63809,1.74
1764746499.64438,1.71
1764746499.65054,1.81
1764746499.656895,1.89
1764746499.662964,1.87
1764746499.669205,1.79
1764746499.675582,1.86
1764746499.681862,2.09
1764746499.687938,2.28
1764746499.694289,2.35
1764746499.700532,2.2
1764746499.706828,2.06
1764746499.713043,2.15
1764746499.719275,2.28
1764746499.725812,1.95
1764746499.731821,1.72
1764746499.738198,1.95
1764746499.744399,1.91
1764746499.750489,1.61
1764746499.756798,1.64
1764746499.762982,1.93
1764746499.769249,2.11
1764746499.7755892,1.85
1764746499.7818549,1.75
1764746499.788065,1.86
1764746499.79441,1.97
1764746499.800479,2.03
1764746499.806829,2.09
1764746499.813083,2.36
1764746499.819173,3.06
1764746499.825669,3.15
1764746499.831797,3.15
1764746499.838022,3.14
1764746499.844481,2.2
1764746499.8506272,1.13
1764746499.856779,1.78
1764746499.862924,2.02
1764746499.869353,1.1
1764746499.8757749,0.97
1764746499.881776,1.18
1764746499.888004,0.78
1764746499.894208,0.85
1764746499.900409,1.12
1764746499.906655,0.87
1764746499.9129212,0.75
1764746499.919289,0.97
1764746499.925639,1.09
1764746499.931745,1.43
1764746499.938088,1.7
1764746499.94496,1.95
1764746499.9503622,2.34
1764746499.956675,2.3
1764746499.962848,2.11
1764746499.969435,2.04
1764746499.975569,2.04
1764746499.981686,2.13
1764746499.987892,2.26
1764746499.9952672,2.42
1764746500.0004082,2.37
1764746500.006678,2.32
1764746500.0129468,2.4
1764746500.019114,2.21
1764746500.025523,2.0
1764746500.031819,1.93
1764746500.0381172,1.9
1764746500.044479,1.94
1764746500.05064,1.72
1764746500.056718,1.49
1764746500.062988,1.52
1764746500.069417,1.5
1764746500.075498,1.37
1764746500.08173,1.47
1764746500.088035,1.49
1764746500.094275,1.64
1764746500.100348,1.72
1764746500.106698,1.73
1764746500.115076,1.88
1764746500.121212,1.84
1764746500.126803,1.92
1764746500.14527,1.95
1764746500.14541,1.84
1764746500.145494,1.77
1764746500.1799848,1.72
1764746500.182101,1.83
1764746500.198103,1.78
1764746500.198914,1.45
1764746500.19917,1.44
1764746500.199474,1.82
1764746500.199661,2.2
1764746500.1999092,2.08
1764746500.200404,2.43
1764746500.206678,2.43
1764746500.218513,1.41
1764746500.219817,1.1
1764746500.226178,1.52
1764746500.2316952,1.7
1764746500.238227,1.64
1764746500.244203,1.64
1764746500.250458,1.52
1764746500.257081,1.22
1764746500.2630138,0.95
1764746500.2691998,0.95
1764746500.275902,1.31
1764746500.281628,2.03
1764746500.287807,3.11
1764746500.294164,3.15
1764746500.30041,3.15
1764746500.306578,2.71
1764746500.312862,0.96
1764746500.3190389,0.61
1764746500.325432,1.13
1764746500.331611,1.21
1764746500.3378592,0.65
1764746500.344188,0.53
1764746500.350359,0.81
1764746500.3566332,0.96
1764746500.362888,0.85
1764746500.369165,1.27
1764746500.375416,1.88
1764746500.381535,1.79
1764746500.3877969,1.58
1764746500.394906,1.83
1764746500.400291,1.79
1764746500.406643,1.83
1764746500.412896,1.96
1764746500.41902,1.97
1764746500.4253042,1.94
1764746500.431594,1.83
1764746500.437781,1.71
1764746500.4441102,1.85
1764746500.450343,1.9
1764746500.4565492,1.84
1764746500.4629571,1.95
1764746500.468996,1.89
1764746500.475293,1.47
1764746500.481628,1.05
1764746500.4877708,1.04
1764746500.4941928,1.07
1764746500.500332,0.86
1764746500.506745,0.87
1764746500.512843,1.57
1764746500.51905,1.38
1764746500.525465,0.63
1764746500.5315032,0.51
1764746500.538055,0.37
1764746500.544155,0.3
1764746500.550368,0.94
1764746500.5566988,1.56
1764746500.5628538,1.87
1764746500.569207,1.97
1764746500.575644,1.84
1764746500.581751,1.7
1764746500.5880451,1.66
1764746500.594319,1.51
1764746500.6003358,1.32
1764746500.6066718,1.19
1764746500.612989,1.27
1764746500.619182,1.31
1764746500.625369,1.44
1764746500.63152,1.58
1764746500.6378229,1.49
1764746500.644146,1.41
1764746500.6502862,1.39
1764746500.656759,1.27
1764746500.663305,1.24
1764746500.6691258,1.18
1764746500.67528,1.41
1764746500.68153,1.55
1764746500.687936,1.46
1764746500.694141,1.56
1764746500.700472,1.63
1764746500.706796,1.71
1764746500.712957,1.82
1764746500.7190888,1.72
1764746500.725279,1.66
1764746500.731534,1.75
1764746500.73777,1.55
1764746500.7442062,1.55
1764746500.750227,2.0
1764746500.75665,2.76
1764746500.762822,3.07
1764746500.769205,3.07
1764746500.77539,2.32
1764746500.7814882,0.69
1764746500.7877162,0.38
1764746500.794176,1.02
1764746500.800237,1.51
1764746500.806626,1.74
1764746500.8128572,2.16
1764746500.819089,2.47
1764746500.825314,1.9
1764746500.831577,1.4
1764746500.837759,1.52
1764746500.844134,1.68
1764746500.850147,1.7
1764746500.8568928,1.58
1764746500.862868,1.59
1764746500.868942,1.56
1764746500.875262,1.46
1764746500.881475,1.55
1764746500.887769,1.42
1764746500.894154,1.21
1764746500.900183,1.26
1764746500.906549,1.46
1764746500.912788,1.75
1764746500.919028,1.94
1764746500.925302,2.04
1764746500.9314702,2.18
1764746500.937705,1.67
1764746500.9441018,1.36
1764746500.950134,1.64
1764746500.956408,1.43
1764746500.962631,1.31
1764746500.968951,1.42
1764746500.97523,1.3
1764746500.981455,1.4
1764746500.9876149,1.43
1764746500.993941,1.36
1764746501.000145,1.52
1764746501.006474,1.82
1764746501.0125902,1.78
1764746501.0188942,1.99
1764746501.0251892,1.96
1764746501.031474,2.06
1764746501.037802,2.14
1764746501.0439968,2.14
1764746501.050394,2.02
1764746501.056502,1.82
1764746501.062717,1.71
1764746501.069171,1.97
1764746501.075292,2.28
1764746501.0814688,1.79
1764746501.08788,1.45
1764746501.0939898,1.53
1764746501.10012,1.34
1764746501.1065972,1.25
1764746501.112771,1.46
1764746501.119174,1.48
1764746501.125456,1.3
1764746501.131639,1.14
1764746501.1378932,1.05
1764746501.144112,1.32
1764746501.150301,1.74
1764746501.156631,1.84
1764746501.162921,1.97
1764746501.1689348,2.03
1764746501.175215,1.96
1764746501.181397,1.87
1764746501.187796,1.64
1764746501.1939268,1.64
1764746501.2001832,1.51
1764746501.206547,1.26
1764746501.2128482,1.3
1764746501.21898,1.72
1764746501.225197,2.59
1764746501.231391,3.04
1764746501.237944,2.6
1764746501.243944,1.39
1764746501.250239,0.68
1764746501.256743,0.96
1764746501.262698,1.32
1764746501.269055,1.1
1764746501.275231,1.26
1764746501.281415,1.44
1764746501.287812,1.26
1764746501.293938,1.28
1764746501.300104,1.44
1764746501.3065522,1.54
1764746501.312808,1.69
1764746501.319017,1.64
1764746501.3269172,1.68
1764746501.33142,1.68
1764746501.337772,1.52
1764746501.343987,1.45
1764746501.3501818,1.49
1764746501.3563788,1.49
1764746501.3627038,1.08
1764746501.368884,0.89
1764746501.375245,1.13
1764746501.3813329,1.88
1764746501.3876538,2.62
1764746501.394005,3.15
1764746501.400066,2.99
1764746501.406357,1.87
1764746501.412643,1.55
1764746501.41886,1.93
1764746501.425133,1.98
1764746501.431309,1.92
1764746501.4377012,2.01
1764746501.4438431,2.0
1764746501.450049,1.8
1764746501.456416,1.59
1764746501.4627788,1.52
1764746501.4687748,1.34
1764746501.475062,1.17
1764746501.481357,1.3
1764746501.487555,1.38
1764746501.493859,1.39
1764746501.50008,1.69
1764746501.506329,1.98
1764746501.512727,1.81
1764746501.518809,1.4
1764746501.525471,1.22
1764746501.531418,1.33
1764746501.537534,1.39
1764746501.543884,1.36
1764746501.550115,1.41
1764746501.556372,1.18
1764746501.56261,1.37
1764746501.5689,1.4
1764746501.575291,0.91
1764746501.581356,1.4
1764746501.5876322,1.8
1764746501.594228,1.83
1764746501.600013,1.73
1764746501.60638,1.65
1764746501.612563,1.78
1764746501.61883,1.91
1764746501.625224,1.88
1764746501.6313229,2.09
1764746501.637589,2.25
1764746501.643874,1.96
1764746501.650099,1.83
1764746501.6563962,1.89
1764746501.6625018,1.58
1764746501.668862,0.83
1764746501.675213,0.15
1764746501.681314,0.14
1764746501.687562,1.12
1764746501.694069,2.06
1764746501.70002,2.34
1764746501.706315,2.17
1764746501.712596,1.04
1764746501.7187378,0.56
1764746501.725146,0.74
1764746501.74972,1.38
1764746501.749917,1.4
1764746501.7500532,1.24
1764746501.7501929,1.45
1764746501.816833,1.43
1764746501.81778,1.32
1764746501.818186,1.46
1764746501.818431,1.55
1764746501.818686,1.52
1764746501.819162,1.52
1764746501.819372,1.54
1764746501.819573,1.52
1764746501.81984,1.55
1764746501.82004,1.79
1764746501.82025,1.93
1764746501.8251112,1.92
1764746501.832766,1.83
1764746501.855263,2.04
1764746501.855627,2.25
1764746501.855882,1.81
1764746501.859968,1.41
1764746501.866005,1.44
1764746501.869236,1.56
1764746501.88093,1.7
1764746501.881248,1.71
1764746501.887594,1.57
1764746501.8939562,1.7
1764746501.900152,1.69
1764746501.906348,1.42
1764746501.912566,1.39
1764746501.918884,1.54
1764746501.9251,1.49
1764746501.931332,1.53
1764746501.9375548,1.5
1764746501.9437811,1.41
1764746501.9500108,1.59
1764746501.956485,1.74
1764746501.962667,1.87
1764746501.9687831,2.11
1764746501.9750662,2.39
1764746501.9811862,3.03
1764746501.987526,3.15
1764746501.993811,3.16
1764746502.000002,3.16
1764746502.006221,3.14
1764746502.0124958,2.65
1764746502.0187242,2.22
1764746502.0261178,2.38
1764746502.031222,2.49
1764746502.037486,2.4
1764746502.043751,2.34
1764746502.050004,2.33
1764746502.056375,1.81
1764746502.062485,1.46
1764746502.068701,1.67
1764746502.075639,1.52
1764746502.0812988,1.51
1764746502.0876071,1.67
1764746502.093751,1.76
1764746502.100032,1.89
1764746502.10621,1.93
1764746502.112458,2.22
1764746502.1187189,2.2
1764746502.125712,1.42
1764746502.1312482,1.12
1764746502.137474,1.34
1764746502.1437771,1.53
1764746502.149996,2.17
1764746502.156509,2.66
1764746502.1624708,2.34
1764746502.168878,1.38
1764746502.175061,0.39
1764746502.181182,0.51
1764746502.187585,0.76
1764746502.1937048,0.95
1764746502.19998,1.0
1764746502.206198,0.98
1764746502.2125068,1.07
1764746502.218622,1.41
1764746502.225002,1.42
1764746502.231178,1.14
1764746502.237502,1.03
1764746502.243739,1.38
1764746502.249933,1.52
1764746502.256279,0.87
1764746502.262507,0.78
1764746502.268925,1.22
1764746502.275062,1.32
1764746502.2814631,1.64
1764746502.2874491,1.97
1764746502.29378,2.1
1764746502.2999449,2.13
1764746502.306369,2.14
1764746502.3126268,2.16
1764746502.318774,2.13
1764746502.325402,2.17
1764746502.331243,2.12
1764746502.337614,1.98
1764746502.343949,1.87
1764746502.35,1.81
1764746502.356436,1.71
1764746502.362486,1.81
1764746502.368762,1.74
1764746502.3750458,1.94
1764746502.381314,1.95
1764746502.387512,1.57
1764746502.393892,1.62
1764746502.4000058,1.88
1764746502.406097,1.87
1764746502.412428,1.97
1764746502.418677,1.72
1764746502.426552,1.55
1764746502.43129,1.5
1764746502.437676,1.51
1764746502.4437592,1.58
1764746502.449954,1.38
1764746502.456349,1.33
1764746502.46245,1.52
1764746502.468678,1.47
1764746502.475069,1.33
1764746502.48113,1.42
1764746502.487502,1.49
1764746502.493742,1.61
1764746502.499936,1.71
1764746502.5061078,1.52
1764746502.5124109,1.84
1764746502.518808,1.95
1764746502.525012,1.2
1764746502.531318,0.92
1764746502.537568,1.27
1764746502.5437272,1.69
1764746502.549888,2.16
1764746502.5562172,2.4
1764746502.562466,2.12
1764746502.568668,1.85
1764746502.5750668,1.72
1764746502.581153,1.5
1764746502.587418,1.38
1764746502.5937102,1.58
1764746502.5999098,1.76
1764746502.606276,2.18
1764746502.61235,2.99
1764746502.61858,3.1
1764746502.624969,2.67
1764746502.6313448,1.64
1764746502.637503,0.49
1764746502.643743,0.8
1764746502.649801,1.3
1764746502.656063,1.24
1764746502.662543,1.27
1764746502.668712,1.22
1764746502.674963,1.1
1764746502.681058,1.04
1764746502.687382,1.19
1764746502.693711,1.3
1764746502.6999,1.22
1764746502.7061691,1.15
1764746502.712338,1.25
1764746502.718863,1.11
1764746502.724936,1.08
1764746502.731195,1.05
1764746502.737394,1.06
1764746502.743636,1.08
1764746502.749832,1.06
1764746502.756027,1.24
1764746502.7623758,1.43
1764746502.76866,1.58
1764746502.7748868,1.79
1764746502.7810829,1.83
1764746502.787362,1.75
1764746502.793698,1.9
1764746502.799796,1.92
1764746502.806051,2.03
1764746502.812278,1.79
1764746502.8186371,0.93
1764746502.825541,0.57
1764746502.831367,1.18
1764746502.837437,1.22
1764746502.843779,0.72
1764746502.849865,0.61
1764746502.8560178,0.92
1764746502.862323,1.06
1764746502.868923,0.81
1764746502.875125,0.62
1764746502.881293,0.99
1764746502.887415,1.38
1764746502.893675,1.01
1764746502.899955,1.13
1764746502.906052,1.3
1764746502.912318,1.31
1764746502.918802,1.69
1764746502.925296,1.78
1764746502.931202,1.73
1764746502.9373262,1.86
1764746502.9436018,1.89
1764746502.949844,1.98
1764746502.956039,2.18
1764746502.9623349,2.24
1764746502.968628,2.03
1764746502.974836,1.84
1764746502.9810529,1.74
1764746502.9873128,1.48
1764746502.993619,1.48
1764746502.999776,1.7
1764746503.005964,1.46
1764746503.0123892,1.05
1764746503.018728,1.15
1764746503.0261009,1.4
1764746503.031152,1.56
1764746503.037531,1.51
1764746503.0435772,1.51
1764746503.049718,1.55
1764746503.05601,1.45
1764746503.0622668,1.6
1764746503.0686111,2.01
1764746503.07575,2.65
1764746503.081092,2.96
1764746503.087425,2.53
1764746503.093631,1.33
1764746503.09982,0.82
1764746503.106029,0.97
1764746503.112274,0.88
1764746503.118725,0.95
1764746503.1249092,1.18
1764746503.1311831,1.36
1764746503.137443,1.4
1764746503.143571,1.2
1764746503.149765,1.24
1764746503.1561549,1.27
1764746503.162553,1.37
1764746503.168716,1.63
1764746503.174948,1.61
1764746503.1813278,1.57
1764746503.187459,1.69
1764746503.193516,1.95
1764746503.199894,1.85
1764746503.206051,1.38
1764746503.2123468,1.44
1764746503.218526,1.57
1764746503.224743,1.38
1764746503.231251,1.03
1764746503.237251,1.01
1764746503.243467,1.21
1764746503.249701,1.58
1764746503.2559931,1.6
1764746503.262228,1.62
1764746503.268402,1.4
1764746503.274716,1.34
1764746503.280997,1.31
1764746503.287167,1.37
1764746503.293514,1.5
1764746503.299668,1.2
1764746503.305981,1.39
1764746503.3122098,1.79
1764746503.318489,1.96
1764746503.324812,2.08
1764746503.331041,2.45
1764746503.337248,2.66
1764746503.343436,2.7
1764746503.349683,2.71
1764746503.355973,2.64
1764746503.362269,2.35
1764746503.368497,1.68
1764746503.374678,1.57
1764746503.381022,1.81
1764746503.387255,1.44
1764746503.393608,1.05
1764746503.399751,1.44
1764746503.406057,1.48
1764746503.41225,1.38
1764746503.418454,1.46
1764746503.4247522,1.44
1764746503.431992,1.32
1764746503.456319,1.28
1764746503.471073,1.28
1764746503.4762151,1.38
1764746503.4783628,1.39
1764746503.483546,1.52
1764746503.48365,1.67
1764746503.4837592,1.69
1764746503.48387,1.69
1764746503.4876852,1.6
1764746503.493367,1.69
1764746503.4997172,1.56
1764746503.505897,1.36
1764746503.512144,1.58
1764746503.518479,1.38
1764746503.524687,1.23
1764746503.530934,1.94
1764746503.5373912,2.79
1764746503.5438342,3.04
1764746503.549808,2.68
1764746503.55593,1.4
1764746503.562165,0.96
1764746503.5683808,1.28
1764746503.574782,1.34
1764746503.5810602,1.26
1764746503.587193,1.05
1764746503.593409,1.03
1764746503.5996,1.22
1764746503.6059442,1.17
1764746503.612073,1.25
1764746503.618423,1.3
1764746503.624632,1.31
1764746503.630867,1.54
1764746503.637161,1.45
1764746503.6433752,1.46
1764746503.6496708,1.79
1764746503.6559691,1.52
1764746503.662111,1.27
1764746503.668399,1.39
1764746503.674623,1.52
1764746503.681232,1.7
1764746503.687287,1.32
1764746503.693465,1.13
1764746503.6996422,1.53
1764746503.706131,2.04
1764746503.712051,1.81
1764746503.7185762,1.61
1764746503.7249238,1.69
1764746503.73085,1.69
1764746503.7370749,1.48
1764746503.743472,1.62
1764746503.7496982,2.1
1764746503.755946,2.2
1764746503.762136,2.18
1764746503.768332,2.05
1764746503.77491,1.6
1764746503.780851,1.55
1764746503.787074,1.52
1764746503.7934358,0.85
1764746503.799571,1.0
1764746503.8059158,1.81
1764746503.8121889,1.88
1764746503.818506,1.66
1764746503.824725,1.7
1764746503.830834,1.61
1764746503.837227,1.41
1764746503.843292,1.66
1764746503.849574,1.91
1764746503.8558269,1.62
1764746503.862122,1.3
1764746503.8683589,1.51
1764746503.874688,1.77
1764746503.880932,1.68
1764746503.887088,1.47
1764746503.8933408,1.48
1764746503.8995478,1.6
1764746503.906044,1.64
1764746503.9119968,1.56
1764746503.9182742,1.31
1764746503.924597,1.3
1764746503.9311402,1.52
1764746503.937187,1.45
1764746503.943294,1.46
1764746503.9496691,1.47
1764746503.95589,1.39
1764746503.9619598,1.41
1764746503.968365,1.64
1764746503.974632,1.33
1764746503.980878,1.21
1764746503.987092,1.64
1764746503.993279,2.13
1764746503.999578,2.21
1764746504.005868,1.23
1764746504.011988,0.0
1764746504.018385,0.0
1764746504.024619,0.04
1764746504.030818,0.4
1764746504.037186,0.69
1764746504.043362,0.61
1764746504.049587,0.73
1764746504.055867,1.03
1764746504.061992,1.23
1764746504.068201,1.34
1764746504.074665,1.24
1764746504.080817,1.38
1764746504.087065,1.49
1764746504.093298,1.31
1764746504.099526,1.15
1764746504.1058528,1.15
1764746504.112014,1.18
1764746504.118253,1.13
1764746504.12461,1.25
1764746504.130767,1.58
1764746504.137077,1.75
1764746504.143269,1.47
1764746504.1496,1.41
1764746504.1557682,1.47
1764746504.1620638,1.41
1764746504.168319,1.37
1764746504.174708,1.31
1764746504.180789,1.19
1764746504.1870668,1.07
1764746504.193273,1.17
1764746504.199716,1.37
1764746504.205817,1.35
1764746504.2122428,1.51
1764746504.2183,1.77
1764746504.2245991,1.83
1764746504.2307642,1.94
1764746504.237053,1.92
1764746504.243752,1.85
1764746504.249561,1.74
1764746504.255743,1.52
1764746504.261939,1.51
1764746504.268416,1.75
1764746504.274561,1.85
1764746504.28078,1.58
1764746504.287028,1.43
1764746504.293279,1.38
1764746504.299438,1.33
1764746504.305694,1.01
1764746504.312,0.68
1764746504.318239,0.93
1764746504.3245308,0.87
1764746504.330752,0.87
1764746504.336958,1.56
1764746504.343162,2.83
1764746504.349495,3.04
1764746504.3557298,2.4
1764746504.36194,1.69
1764746504.368221,1.38
1764746504.374523,1.27
1764746504.380715,1.5
1764746504.3869922,1.58
1764746504.393228,1.4
1764746504.399503,1.19
1764746504.405749,0.96
1764746504.412045,1.0
1764746504.4182332,1.19
1764746504.4245389,0.97
1764746504.430779,0.97
1764746504.437076,1.44
1764746504.4431732,2.2
1764746504.449517,2.7
1764746504.455686,2.4
1764746504.461917,1.63
1764746504.4681878,0.67
1764746504.474426,0.59
1764746504.480757,0.97
1764746504.486955,1.33
1764746504.493148,1.53
1764746504.499532,1.65
1764746504.505658,1.79
1764746504.51195,1.96
1764746504.5181649,2.05
1764746504.524454,1.92
1764746504.530721,1.97
1764746504.5369558,2.17
1764746504.5431712,2.06
1764746504.549387,2.11
1764746504.555697,1.93
1764746504.561894,1.84
1764746504.568148,2.09
1764746504.574422,2.0
1764746504.580686,1.57
1764746504.586942,1.27
1764746504.5931818,1.13
1764746504.599387,0.96
1764746504.605731,0.95
1764746504.611878,1.19
1764746504.618106,1.44
1764746504.624492,1.31
1764746504.630756,1.31
1764746504.636999,1.83
1764746504.6431518,2.14
1764746504.6493828,2.31
1764746504.65567,2.55
1764746504.661945,2.39
1764746504.668101,2.24
1764746504.674527,2.06
1764746504.680672,1.86
1764746504.686909,1.91
1764746504.693166,1.89
1764746504.699424,1.84
1764746504.705659,1.81
1764746504.7119071,1.69
1764746504.718184,1.7
1764746504.724481,1.75
1764746504.730644,1.82
1764746504.73707,1.73
1764746504.743186,1.7
1764746504.749485,1.82
1764746504.755679,1.73
1764746504.761951,1.7
1764746504.768119,1.66
1764746504.774698,1.66
1764746504.780683,1.72
1764746504.786905,1.76
1764746504.793259,1.67
1764746504.799393,1.85
1764746504.805699,1.97
1764746504.8119218,1.94
1764746504.818165,2.0
1764746504.824526,2.05
1764746504.830646,2.17
1764746504.837007,2.16
1764746504.843166,2.03
1764746504.849422,1.95
1764746504.8556852,1.85
1764746504.861891,1.8
1764746504.868152,1.87
1764746504.874825,1.7
1764746504.880678,1.07
1764746504.8868968,0.84
1764746504.8930502,1.25
1764746504.899311,2.3
1764746504.905617,2.72
1764746504.9118469,2.52
1764746504.91813,1.88
1764746504.9243462,1.11
1764746504.930594,1.29
1764746504.936787,1.34
1764746504.943097,1.2
1764746504.949543,1.3
1764746504.95575,1.51
1764746504.961847,1.46
1764746504.968137,1.57
1764746504.974279,1.6
1764746504.980557,1.7
1764746504.986827,1.75
1764746504.9929888,1.45
1764746504.99941,1.36
1764746505.005692,1.45
1764746505.01179,1.67
1764746505.018038,1.44
1764746505.02434,1.34
1764746505.030538,1.6
1764746505.0368168,1.39
1764746505.043018,1.09
1764746505.0493498,1.09
1764746505.0555918,0.94
1764746505.061825,1.1
1764746505.068083,1.64
1764746505.074293,1.51
1764746505.0805252,1.35
1764746505.08693,1.64
1764746505.093156,1.95
1764746505.0998678,1.96
1764746505.14083,1.85
1764746505.143768,1.96
1764746505.145153,2.28
1764746505.15739,2.25
1764746505.157891,2.17
1764746505.1582432,2.25
1764746505.1589,2.26
1764746505.159105,2.17
1764746505.1598778,2.13
1764746505.176178,2.21
1764746505.17644,1.77
1764746505.176647,1.3
1764746505.2080488,1.48
1764746505.212597,1.27
1764746505.214019,1.0
1764746505.225229,1.18
1764746505.225693,1.36
1764746505.226766,1.06
1764746505.23358,1.09
1764746505.23419,1.73
1764746505.234556,2.19
1764746505.237015,2.14
1764746505.24323,1.98
1764746505.249513,2.13
1764746505.2601202,2.14
1764746505.269403,2.11
1764746505.271322,2.17
1764746505.27444,2.03
1764746505.280572,2.0
1764746505.286888,2.02
1764746505.293033,1.99
1764746505.299326,2.04
1764746505.305832,1.98
1764746505.31183,1.82
1764746505.318136,1.8
1764746505.324358,1.67
1764746505.330562,1.56
1764746505.336872,1.69
1764746505.343008,1.91
1764746505.3491688,2.71
1764746505.355577,3.15
1764746505.361711,3.15
1764746505.367958,2.87
1764746505.374251,1.21
1764746505.38054,1.03
1764746505.3868248,1.79
1764746505.393095,1.87
1764746505.399251,1.79
1764746505.40557,1.96
1764746505.4117482,2.07
1764746505.4179862,1.88
1764746505.424223,1.65
1764746505.430496,1.9
1764746505.436919,1.85
1764746505.442984,1.49
1764746505.4492102,1.39
1764746505.455542,1.33
1764746505.4617548,1.2
1764746505.468006,1.36
1764746505.4746208,1.3
1764746505.4804852,1.32
1764746505.486795,1.64
1764746505.492979,1.9
1764746505.499202,2.06
1764746505.5062342,2.09
1764746505.5116649,2.15
1764746505.517919,2.43
1764746505.5241868,2.58
1764746505.53042,2.23
1764746505.536732,1.86
1764746505.542932,1.78
1764746505.549215,1.9
1764746505.555548,1.83
1764746505.561728,1.7
1764746505.5680408,1.5
1764746505.574311,1.41
1764746505.580534,1.39
1764746505.5867672,1.3
1764746505.593006,1.3
1764746505.599255,1.68
1764746505.6055932,1.68
1764746505.61169,1.42
1764746505.6179578,1.3
1764746505.624236,1.17
1764746505.6304069,1.25
1764746505.636719,1.35
1764746505.642998,1.18
1764746505.6492229,1.34
1764746505.655665,1.59
1764746505.661691,1.61
1764746505.667933,1.63
1764746505.674337,1.85
1764746505.680423,2.23
1764746505.686898,2.37
1764746505.692905,2.32
1764746505.699268,2.23
1764746505.705484,2.24
1764746505.711649,2.35
1764746505.717976,2.18
1764746505.724208,1.93
1764746505.730421,1.98
1764746505.7367628,2.04
1764746505.7429729,2.16
1764746505.749217,2.0
1764746505.7559192,1.61
1764746505.7616582,1.33
1764746505.767963,1.11
1764746505.7741618,1.14
1764746505.780486,1.07
1764746505.7867992,0.7
1764746505.792882,0.57
1764746505.799233,1.35
1764746505.805596,2.1
1764746505.811592,1.87
1764746505.817906,1.21
1764746505.824171,0.4
1764746505.830465,0.54
1764746505.836735,1.42
1764746505.842884,1.96
1764746505.84912,2.07
1764746505.855955,1.71
1764746505.861551,1.41
1764746505.867886,1.44
1764746505.874107,1.35
1764746505.880437,1.18
1764746505.8867462,1.16
1764746505.892977,1.15
1764746505.899105,1.27
1764746505.9055932,1.51
1764746505.9116,1.49
1764746505.917928,1.48
1764746505.924188,1.57
1764746505.930395,1.87
1764746505.9367218,2.03
1764746505.942909,2.03
1764746505.949088,2.06
1764746505.955455,1.94
1764746505.9615738,2.07
1764746505.967948,2.1
1764746505.974127,1.91
1764746505.980397,1.94
1764746505.986572,1.98
1764746505.992821,1.96
1764746505.999143,1.96
1764746506.0056598,1.86
1764746506.011592,2.01
1764746506.0178611,2.17
1764746506.024138,1.82
1764746506.030543,1.31
1764746506.0366662,1.05
1764746506.042892,1.27
1764746506.0491068,1.12
1764746506.055508,0.9
1764746506.061573,1.32
1764746506.067851,1.83
1764746506.074146,1.67
1764746506.0803242,1.7
1764746506.086647,2.01
1764746506.092843,2.31
1764746506.099055,2.02
1764746506.105487,1.74
1764746506.111647,1.81
1764746506.117903,2.08
1764746506.124138,2.3
1764746506.130351,2.56
1764746506.1367471,2.46
1764746506.1430469,2.11
1764746506.149181,2.16
1764746506.155443,1.97
1764746506.161581,1.75
1764746506.167895,1.79
1764746506.1741052,1.63
1764746506.180317,1.63
1764746506.1865978,1.77
1764746506.19284,1.77
1764746506.1990778,1.66
1764746506.205495,1.53
1764746506.211597,1.62
1764746506.217907,1.68
1764746506.2240891,1.39
1764746506.2302852,1.76
1764746506.2366982,1.96
1764746506.242805,2.25
1764746506.249036,3.16
1764746506.255681,3.16
1764746506.2616389,3.14
1764746506.2678049,2.23
1764746506.274067,1.24
1764746506.280306,1.77
1764746506.286726,2.14
1764746506.2928178,1.91
1764746506.2990808,2.09
1764746506.305428,2.18
1764746506.311499,1.72
1764746506.3177888,2.03
1764746506.3241642,2.33
1764746506.330304,1.72
1764746506.33678,1.47
1764746506.3428538,1.54
1764746506.349084,1.21
1764746506.355377,1.14
1764746506.361514,1.29
1764746506.367876,1.36
1764746506.374186,1.23
1764746506.380497,1.14
1764746506.386626,1.27
1764746506.392878,1.5
1764746506.399065,1.94
1764746506.405398,2.22
1764746506.411551,2.4
1764746506.4177978,2.6
1764746506.424046,2.77
1764746506.430295,2.83
1764746506.436617,2.69
1764746506.442849,2.53
1764746506.448971,2.6
1764746506.455487,2.4
1764746506.461525,2.13
1764746506.467843,2.11
1764746506.474207,2.02
1764746506.480345,1.93
1764746506.48661,1.89
1764746506.492799,1.89
1764746506.498994,1.87
1764746506.505306,1.8
1764746506.51157,1.76
1764746506.517969,1.75
1764746506.524166,1.84
1764746506.530255,1.95
1764746506.5365398,2.12
1764746506.542738,2.2
1764746506.549098,2.35
1764746506.556473,2.49
1764746506.561512,2.61
1764746506.56777,2.76
1764746506.57405,2.74
1764746506.580229,2.53
1764746506.58652,2.26
1764746506.592649,2.06
1764746506.5989609,2.09
1764746506.605303,1.95
1764746506.611464,1.6
1764746506.6178,1.34
1764746506.623987,1.17
1764746506.6301692,1.35
1764746506.6364858,1.49
1764746506.642744,1.48
1764746506.648937,1.53
1764746506.655811,1.5
1764746506.661647,1.54
1764746506.667735,1.59
1764746506.674015,1.58
1764746506.680165,1.58
1764746506.68651,1.69
1764746506.692783,2.31
1764746506.699014,3.14
1764746506.705602,3.13
1764746506.711447,2.82
1764746506.717804,1.52
1764746506.723982,0.65
1764746506.7302022,0.9
1764746506.736537,1.13
1764746506.742646,0.65
1764746506.754901,0.51
1764746506.760061,0.58
1764746506.809212,0.6
1764746506.811193,0.59
1764746506.8317068,0.53
1764746506.8319428,0.45
1764746506.83281,0.47
1764746506.833071,0.61
1764746506.833451,0.72
1764746506.833589,0.65
1764746506.833724,0.84
1764746506.833856,0.97
1764746506.8340008,1.32
1764746506.834141,1.35
1764746506.836503,1.39
1764746506.842807,1.73
1764746506.858788,2.23
1764746506.859097,2.36
1764746506.861609,2.37
1764746506.872998,2.3
1764746506.874678,2.08
1764746506.8811278,2.25
1764746506.886577,2.37
1764746506.892749,1.68
1764746506.899103,0.85
1764746506.905506,0.86
1764746506.911652,1.47
1764746506.917789,1.38
1764746506.923978,0.98
1764746506.930131,0.81
1764746506.9364,0.71
1764746506.942626,0.45
1764746506.9489112,0.5
1764746506.9552078,0.64
1764746506.961431,0.58
1764746506.967714,0.55
1764746506.973952,0.75
1764746506.980284,1.08
1764746506.986495,1.45
1764746506.992734,1.55
1764746506.998923,1.77
1764746507.005259,1.85
1764746507.011394,1.75
1764746507.017637,1.68
1764746507.023898,1.73
1764746507.030059,1.85
1764746507.036364,1.76
1764746507.0425742,1.6
1764746507.048887,1.59
1764746507.05516,1.32
1764746507.0614002,0.95
1764746507.0676968,1.01
1764746507.073948,0.88
1764746507.080096,0.7
1764746507.086368,0.93
1764746507.0925949,0.88
1764746507.098976,0.82
1764746507.105241,1.05
1764746507.111375,1.35
1764746507.117735,1.55
1764746507.123848,1.6
1764746507.130157,1.86
1764746507.136374,1.84
1764746507.142622,1.72
1764746507.148886,2.36
1764746507.155128,2.69
1764746507.161378,2.55
1764746507.1676302,1.68
1764746507.1739252,0.76
1764746507.180075,0.71
1764746507.1864462,0.68
1764746507.192675,0.51
1764746507.198857,1.18
1764746507.2051258,1.6
1764746507.211355,1.41
1764746507.217656,1.5
1764746507.223848,1.67
1764746507.2300842,1.61
1764746507.236398,1.45
1764746507.242612,1.37
1764746507.248839,1.52
1764746507.255127,1.54
1764746507.261315,1.38
1764746507.267555,1.46
1764746507.273836,1.4
1764746507.280133,1.44
1764746507.2863512,1.49
1764746507.2926972,1.31
1764746507.298799,1.36
1764746507.3051252,1.48
1764746507.31139,1.41
1764746507.317621,1.47
1764746507.32384,1.5
1764746507.33009,1.48
1764746507.3363829,1.59
1764746507.3425531,1.26
1764746507.348816,0.82
1764746507.3551302,0.87
1764746507.361366,1.19
1764746507.367581,1.25
1764746507.37388,0.97
1764746507.380046,1.17
1764746507.3864589,1.37
1764746507.392607,1.38
1764746507.3988118,1.51
1764746507.405108,1.67
1764746507.411387,1.66
1764746507.417616,1.79
1764746507.423798,1.77
1764746507.430092,1.44
1764746507.436362,1.84
1764746507.442577,2.06
1764746507.448873,1.24
1764746507.455132,0.65
1764746507.46131,1.09
1764746507.467571,1.26
1764746507.473789,1.17
1764746507.480059,1.29
1764746507.486368,1.39
1764746507.492532,1.07
1764746507.4986749,0.62
1764746507.5050309,0.73
1764746507.5113878,0.67
1764746507.517625,0.55
1764746507.523755,0.57
1764746507.5300438,0.71
1764746507.53629,1.07
1764746507.542513,1.31
1764746507.548828,1.55
1764746507.555295,1.74
1764746507.561602,1.81
1764746507.567508,1.83
1764746507.573767,1.86
1764746507.580014,1.91
1764746507.586325,1.89
1764746507.5925062,2.21
1764746507.598766,2.94
1764746507.60497,3.05
1764746507.611317,2.52
1764746507.617494,1.66
1764746507.6238248,0.65
1764746507.629948,0.87
1764746507.636189,1.35
1764746507.642473,1.36
1764746507.648756,1.53
1764746507.6550632,1.99
1764746507.661204,2.39
1764746507.6674938,2.45
1764746507.6736808,2.21
1764746507.679965,2.13
1764746507.6863549,1.82
1764746507.692493,1.68
1764746507.698773,1.73
1764746507.705031,1.52
1764746507.711208,1.2
1764746507.717531,0.9
1764746507.723684,0.32
1764746507.729943,0.35
1764746507.736321,0.92
1764746507.7424698,1.22
1764746507.748742,1.31
1764746507.7550342,1.26
1764746507.7612522,1.42
1764746507.7675,1.76
1764746507.7737632,1.99
1764746507.779951,2.17
1764746507.786363,2.21
1764746507.79251,2.09
1764746507.798799,2.02
1764746507.8053892,1.62
1764746507.811276,1.48
1764746507.817526,1.48
1764746507.823873,1.24
1764746507.830022,1.24
1764746507.83627,1.5
1764746507.8426611,1.45
1764746507.848732,1.56
1764746507.855016,1.64
1764746507.861262,1.33
1764746507.86762,1.2
1764746507.873715,1.17
1764746507.879881,1.3
1764746507.8861592,1.29
1764746507.892434,1.13
1764746507.898776,1.13
1764746507.905012,1.22
1764746507.9112089,1.37
1764746507.917469,1.71
1764746507.9237912,1.77
1764746507.929958,1.94
1764746507.936299,2.17
1764746507.942436,2.11
1764746507.9486878,1.89
1764746507.95496,1.75
1764746507.9612129,1.91
1764746507.967437,2.04
1764746507.973721,1.22
1764746507.979908,0.38
1764746507.986162,0.85
1764746507.992418,1.32
1764746507.998705,1.05
1764746508.0049548,1.06
1764746508.011223,1.21
1764746508.017598,1.31
1764746508.023741,1.09
1764746508.02988,0.81
1764746508.03618,1.22
1764746508.042439,1.61
1764746508.048727,1.75
1764746508.054995,2.31
1764746508.0610828,2.69
1764746508.067476,2.57
1764746508.073598,1.73
1764746508.079908,0.57
1764746508.086289,0.82
1764746508.0923572,1.19
1764746508.09868,1.11
1764746508.104974,1.23
1764746508.111166,1.33
1764746508.117446,1.43
1764746508.123639,1.43
1764746508.129884,1.39
1764746508.1360798,1.46
1764746508.142329,1.18
1764746508.148659,1.12
1764746508.1549098,1.3
1764746508.161101,1.48
1764746508.1674502,1.7
1764746508.1737049,1.5
1764746508.179956,1.05
1764746508.186173,1.25
1764746508.192371,1.64
1764746508.2096682,1.6
1764746508.2429,1.64
1764746508.243448,2.0
1764746508.243558,2.25
1764746508.2436328,1.99
1764746508.244205,1.76
1764746508.244545,1.85
1764746508.250551,1.73
1764746508.2506828,1.72
1764746508.258132,1.6
1764746508.261261,1.03
1764746508.268119,1.11
1764746508.273669,1.53
1764746508.279993,1.48
1764746508.2862048,1.34
1764746508.292362,1.47
1764746508.298681,1.52
1764746508.304932,1.41
1764746508.311115,1.3
1764746508.3173811,1.27
1764746508.323666,1.51
1764746508.329841,1.53
1764746508.336145,1.46
1764746508.3426938,1.43
1764746508.3486989,1.73
1764746508.355135,1.54
1764746508.361334,1.34
1764746508.367444,1.59
1764746508.3736398,1.86
1764746508.3799198,1.79
1764746508.386097,1.78
1764746508.3923562,1.71
1764746508.3986182,1.55
1764746508.4048262,1.35
1764746508.4111192,1.7
1764746508.417305,1.94
1764746508.423636,1.42
1764746508.4298391,1.42
1764746508.43607,1.56
1764746508.442305,1.29
1764746508.448542,0.93
1764746508.454806,0.72
1764746508.461042,1.16
1764746508.4673102,1.27
1764746508.4735649,0.88
1764746508.47979,1.24
1764746508.4860532,1.49
1764746508.492316,1.37
1764746508.4985678,1.43
1764746508.504811,2.29
1764746508.511039,3.14
1764746508.517358,2.9
1764746508.523511,2.62
1764746508.529827,1.72
1764746508.536198,0.79
1764746508.5422552,1.43
1764746508.5486422,2.11
1764746508.555058,2.1
1764746508.561058,1.54
1764746508.567324,1.55
1764746508.5734951,1.51
1764746508.5798268,1.18
1764746508.586059,1.25
1764746508.592243,1.3
1764746508.598538,1.92
1764746508.604937,2.31
1764746508.611136,2.3
1764746508.617278,2.22
1764746508.623658,1.94
1764746508.6299388,2.08
1764746508.636094,2.21
1764746508.642269,1.97
1764746508.648544,1.74
1764746508.654891,1.91
1764746508.660973,1.83
1764746508.667281,1.82
1764746508.673528,1.74
1764746508.679731,1.67
1764746508.685992,1.54
1764746508.692284,1.46
1764746508.698482,1.58
1764746508.70476,1.49
1764746508.711068,1.37
1764746508.7172842,1.52
1764746508.723511,1.82
1764746508.729751,2.0
1764746508.736085,1.94
1764746508.742207,2.02
1764746508.748547,2.32
1764746508.754792,2.42
1764746508.7610722,2.02
1764746508.7672782,1.73
1764746508.7735732,1.21
1764746508.779742,0.56
1764746508.7859788,0.96
1764746508.792256,1.37
1764746508.798489,1.31
1764746508.804836,1.3
1764746508.8109891,1.56
1764746508.817278,1.87
1764746508.823506,1.83
1764746508.829737,1.79
1764746508.83614,2.15
1764746508.842239,2.63
1764746508.8485289,2.79
1764746508.854825,2.98
1764746508.861017,2.64
1764746508.867249,2.33
1764746508.873437,2.15
1764746508.87974,1.85
1764746508.8860302,1.72
1764746508.89227,1.76
1764746508.898554,1.34
1764746508.904765,1.37
1764746508.911041,1.61
1764746508.917366,1.49
1764746508.923445,1.37
1764746508.929707,1.54
1764746508.935948,1.31
1764746508.94224,1.22
1764746508.948603,1.72
1764746508.954815,1.83
1764746508.960932,2.15
1764746508.9674802,3.15
1764746508.973572,3.15
1764746508.9797308,3.04
1764746508.985996,1.5
1764746508.992222,0.8
1764746508.99854,1.66
1764746509.004742,1.93
1764746509.01096,1.62
1764746509.0172029,1.59
1764746509.023409,1.53
1764746509.029814,0.89
1764746509.0361652,0.2
1764746509.042185,1.01
1764746509.0484512,1.36
1764746509.05471,1.19
1764746509.0609071,1.2
1764746509.06729,1.27
1764746509.073364,1.26
1764746509.079742,1.22
1764746509.087414,1.58
1764746509.092194,2.42
1764746509.098423,2.7
1764746509.104792,2.09
1764746509.111006,2.11
1764746509.117208,2.39
1764746509.1233711,1.86
1764746509.129643,1.19
1764746509.135981,1.5
1764746509.142167,1.8
1764746509.14852,1.74
1764746509.15471,1.91
1764746509.160911,2.32
1764746509.167191,2.69
1764746509.173482,2.63
1764746509.179772,2.56
1764746509.1865668,2.26
1764746509.1921878,2.09
1764746509.198438,2.24
1764746509.20478,1.76
1764746509.210942,1.11
1764746509.217251,1.53
1764746509.223527,2.13
1764746509.229727,2.07
1764746509.236209,1.52
1764746509.242235,1.35
1764746509.248474,1.85
1764746509.25482,1.16
1764746509.2610629,1.06
1764746509.267212,2.03
1764746509.273482,2.27
1764746509.27969,1.74
1764746509.286046,1.66
1764746509.2922308,1.77
1764746509.2984052,1.89
1764746509.3045802,1.82
1764746509.310903,1.7
1764746509.317154,1.69
1764746509.3234298,1.73
1764746509.329602,1.12
1764746509.335968,1.08
1764746509.342151,1.27
1764746509.3483572,0.98
1764746509.354638,0.77
1764746509.360906,1.03
1764746509.367088,1.06
1764746509.3734,1.01
1764746509.3796532,1.31
1764746509.386035,0.99
1764746509.392128,0.93
1764746509.398388,1.06
1764746509.4046369,0.89
1764746509.410846,1.28
1764746509.417134,2.02
1764746509.423351,2.7
1764746509.429641,2.83
1764746509.436164,2.22
1764746509.442085,0.93
1764746509.448373,0.85
1764746509.4546182,1.15
1764746509.460814,0.92
1764746509.467104,1.27
1764746509.473331,1.75
1764746509.479678,1.79
1764746509.486214,1.5
1764746509.492207,0.98
1764746509.498346,0.76
1764746509.504604,0.68
1764746509.5108109,0.5
1764746509.5171149,0.96
1764746509.523288,1.04
1764746509.529563,0.89
1764746509.536053,1.31
1764746509.542168,1.88
1764746509.548408,1.96
1764746509.554545,2.16
1764746509.560799,2.56
1764746509.567092,2.9
1764746509.57328,3.06
1764746509.579581,2.84
1764746509.586105,2.21
1764746509.592035,2.06
1764746509.5984151,2.28
1764746509.604573,2.03
1764746509.6108642,1.58
1764746509.617235,1.53
1764746509.6233652,1.42
1764746509.629567,1.25
1764746509.636013,1.37
1764746509.64206,1.13
1764746509.648341,0.79
1764746509.6545842,0.63
1764746509.675318,0.84
1764746509.68646,0.62
1764746509.68665,0.59
1764746509.686812,1.26
1764746509.68709,1.96
1764746509.694953,2.12
1764746509.7027462,2.66
1764746509.705923,2.68
1764746509.726571,2.2
1764746509.739543,2.02
1764746509.7400289,1.88
1764746509.740237,1.15
1764746509.740532,0.84
1764746509.747854,2.05
1764746509.749208,2.61
1764746509.75791,2.4
1764746509.760912,2.08
1764746509.7674,1.97
1764746509.773427,2.1
1764746509.779681,2.17
1764746509.78593,2.19
1764746509.793544,1.94
1764746509.798305,1.69
1764746509.804637,1.54
1764746509.811109,1.32
1764746509.817183,1.33
1764746509.823297,1.69
1764746509.829594,1.7
1764746509.835993,1.31
1764746509.842067,1.32
1764746509.848314,1.07
1764746509.8546162,0.92
1764746509.860783,0.88
1764746509.8670652,0.92
1764746509.873309,1.24
1764746509.8796532,2.3
1764746509.8861609,3.14
1764746509.891947,2.96
1764746509.8983512,2.0
1764746509.90452,1.1
1764746509.9107552,1.67
1764746509.917216,2.1
1764746509.923439,0.94
1764746509.9296231,1.02
1764746509.937003,1.76
1764746509.942004,1.88
1764746509.948579,2.25
1764746509.95462,2.15
1764746509.961115,1.62
1764746509.9671402,1.9
1764746509.973322,1.74
1764746509.9795818,1.06
1764746509.9859478,0.67
1764746509.992003,0.56
1764746509.998548,0.32
1764746510.004738,0.2
1764746510.0109792,0.1
1764746510.017437,0.13
1764746510.023338,0.33
1764746510.029655,0.65
1764746510.036015,0.93
1764746510.042009,1.58
1764746510.048353,2.56
1764746510.05449,3.17
1764746510.060738,3.17
1764746510.067134,3.16
1764746510.073427,2.84
1764746510.079742,1.59
1764746510.0872908,1.33
1764746510.092027,1.61
1764746510.098258,1.09
1764746510.104568,1.09
1764746510.110752,1.37
1764746510.1170728,1.43
1764746510.123295,1.55
1764746510.129539,1.58
1764746510.136168,1.73
1764746510.142108,1.7
1764746510.148475,1.36
1764746510.154526,1.32
1764746510.160982,1.53
1764746510.166972,1.79
1764746510.173353,1.8
1764746510.1795142,1.85
1764746510.187139,2.15
1764746510.1920698,1.66
1764746510.198245,1.36
1764746510.204564,1.69
1764746510.210764,1.63
1764746510.2171369,1.63
1764746510.223228,1.49
1764746510.2295969,1.21
1764746510.23639,1.1
1764746510.2419798,1.14
1764746510.248134,1.45
1764746510.2547631,1.26
1764746510.2607129,0.84
1764746510.266942,1.09
1764746510.273195,1.49
1764746510.279396,1.43
1764746510.2858372,1.62
1764746510.2919009,1.62
1764746510.298222,1.43
1764746510.304497,1.55
1764746510.3107772,0.95
1764746510.317012,0.9
1764746510.323231,1.27
1764746510.329439,0.81
1764746510.335915,0.74
1764746510.34193,1.44
1764746510.348244,2.25
1764746510.354426,2.03
1764746510.36067,1.93
1764746510.3669188,1.47
1764746510.373118,0.48
1764746510.379488,0.33
1764746510.386039,1.09
1764746510.391946,1.6
1764746510.398347,1.09
1764746510.4044218,0.51
1764746510.410696,1.4
1764746510.4169312,1.88
1764746510.423179,1.16
1764746510.4294138,1.3
1764746510.436227,1.98
1764746510.441892,1.38
1764746510.4481862,1.65
1764746510.454487,2.18
1764746510.460861,1.67
1764746510.466879,1.41
1764746510.4732318,1.49
1764746510.479476,1.17
1764746510.485734,0.89
1764746510.491968,1.02
1764746510.498379,1.05
1764746510.504481,0.86
1764746510.510611,0.61
1764746510.516897,0.5
1764746510.5231318,0.61
1764746510.529375,0.71
1764746510.535748,1.36
1764746510.541972,2.0
1764746510.5481238,2.53
1764746510.55454,3.12
1764746510.560698,2.65
1764746510.567019,2.31
1764746510.573044,2.4
1764746510.5794098,1.94
1764746510.585857,1.63
1764746510.592017,1.38
1764746510.598248,1.09
1764746510.604346,1.54
1764746510.6105778,1.47
1764746510.6169238,1.32
1764746510.623116,1.57
1764746510.629417,1.19
1764746510.6357288,0.98
1764746510.641904,1.14
1764746510.648057,1.47
1764746510.6543071,1.68
1764746510.660713,1.46
1764746510.6669528,1.9
1764746510.673082,2.66
1764746510.679389,2.95
1764746510.685796,3.16
1764746510.6918662,3.15
1764746510.698103,2.79
1764746510.704482,2.08
1764746510.7106612,1.86
1764746510.716843,2.04
1764746510.7230651,1.67
1764746510.729386,0.69
1764746510.7356951,0.54
1764746510.741834,0.69
1764746510.7480462,0.65
1764746510.754338,1.55
1764746510.760609,1.76
1764746510.766749,1.36
1764746510.77306,1.81
1764746510.779382,2.0
1764746510.785675,1.64
1764746510.791832,1.49
1764746510.7981172,1.64
1764746510.8043368,1.94
1764746510.8105369,2.48
1764746510.817116,2.94
1764746510.823027,2.27
1764746510.829279,2.04
1764746510.836035,1.16
1764746510.841758,0.18
1764746510.848086,0.72
1764746510.854379,0.83
1764746510.860555,0.55
1764746510.866903,0.59
1764746510.873052,0.7
1764746510.87934,0.49
1764746510.885622,0.76
1764746510.891895,0.75
1764746510.898001,0.69
1764746510.9042912,1.06
1764746510.910589,0.94
1764746510.916768,1.22
1764746510.923012,1.45
1764746510.929298,1.76
1764746510.935662,2.09
1764746510.941768,2.13
1764746510.947971,2.3
1764746510.954171,3.14
1764746510.960459,2.96
1764746510.966787,2.02
1764746510.972965,2.05
1764746510.979228,2.5
1764746510.9855402,2.27
1764746510.991776,1.9
1764746510.997976,1.85
1764746511.004255,2.03
1764746511.0105548,1.7
1764746511.016793,1.23
1764746511.022992,1.4
1764746511.029189,1.58
1764746511.0356631,1.52
1764746511.0417862,1.52
1764746511.048002,1.61
1764746511.054252,1.43
1764746511.0604858,1.52
1764746511.066837,1.95
1764746511.073195,1.86
1764746511.079284,1.63
1764746511.085711,1.67
1764746511.091917,1.62
1764746511.098072,1.59
1764746511.104286,1.79
1764746511.110516,1.76
1764746511.1169212,1.69
1764746511.123042,2.21
1764746511.1293051,1.92
1764746511.1356611,1.47
1764746511.15325,1.72
1764746511.153484,2.12
1764746511.154248,2.0
1764746511.160495,1.92
1764746511.1967769,2.49
1764746511.201639,2.73
1764746511.201787,2.13
1764746511.20192,1.76
1764746511.202081,1.95
1764746511.2022212,2.01
1764746511.209535,1.6
1764746511.247361,1.41
1764746511.250186,1.26
1764746511.250747,1.12
1764746511.2510788,0.89
1764746511.251387,1.02
1764746511.253661,0.86
1764746511.254002,0.55
1764746511.2545438,1.37
1764746511.260724,1.49
1764746511.267326,1.19
1764746511.28125,2.29
1764746511.281557,3.16
1764746511.2861629,3.15
1764746511.291788,2.89
1764746511.298033,1.72
1764746511.3043132,1.32
1764746511.310883,1.42
1764746511.317035,0.92
1764746511.323307,0.82
1764746511.3292532,0.81
1764746511.3356,0.56
1764746511.341693,0.82
1764746511.348303,0.91
1764746511.354329,0.95
1764746511.360567,0.85
1764746511.366768,0.84
1764746511.3730571,0.56
1764746511.379222,0.63
1764746511.385536,0.96
1764746511.391785,1.0
1764746511.398015,0.99
1764746511.404372,1.26
1764746511.4105191,1.74
1764746511.41666,1.82
1764746511.422965,1.67
1764746511.429464,1.9
1764746511.43552,1.64
1764746511.441685,1.26
1764746511.447971,1.21
1764746511.4546912,1.27
1764746511.460452,1.32
1764746511.466723,1.48
1764746511.472971,1.58
1764746511.47924,1.68
1764746511.4855,1.71
1764746511.491734,1.4
1764746511.497951,1.27
1764746511.504493,1.99
1764746511.510402,2.24
1764746511.516711,1.61
1764746511.522932,1.52
1764746511.529203,1.78
1764746511.5354738,1.68
1764746511.541675,1.34
1764746511.547932,1.16
1764746511.554232,1.46
1764746511.560408,1.36
1764746511.566612,1.2
1764746511.573069,1.41
1764746511.5791428,1.66
1764746511.585409,1.86
1764746511.5916648,1.96
1764746511.5979872,1.98
1764746511.604209,2.29
1764746511.610402,2.05
1764746511.616701,1.76
1764746511.6229,2.16
1764746511.6291578,2.57
1764746511.635535,2.48
1764746511.641666,2.56
1764746511.6479528,2.48
1764746511.654188,2.13
1764746511.660351,1.81
1764746511.666698,1.49
1764746511.672928,1.39
1764746511.679219,1.24
1764746511.685465,0.82
1764746511.691653,0.13
1764746511.697886,0.15
1764746511.704163,0.43
1764746511.710596,1.04
1764746511.71664,1.26
1764746511.722945,1.55
1764746511.729059,1.96
1764746511.735466,2.6
1764746511.7415948,3.16
1764746511.747812,3.17
1764746511.754138,3.16
1764746511.760395,2.75
1764746511.766753,1.14
1764746511.772811,0.9
1764746511.779176,1.22
1764746511.785471,1.13
1764746511.791737,1.12
1764746511.797888,1.19
1764746511.80421,1.15
1764746511.8104,1.18
1764746511.816597,1.16
1764746511.822861,1.44
1764746511.829142,1.15
1764746511.835469,0.96
1764746511.841504,1.27
1764746511.847987,1.3
1764746511.854183,0.92
1764746511.8603442,1.08
1764746511.8665862,1.32
1764746511.872832,1.38
1764746511.879128,1.37
1764746511.885379,1.45
1764746511.891511,1.74
1764746511.8978748,2.22
1764746511.904238,2.39
1764746511.91039,2.21
1764746511.916619,2.35
1764746511.922855,3.15
1764746511.929133,2.83
1764746511.935392,1.76
1764746511.941522,1.66
1764746511.947813,2.2
1764746511.954253,2.09
1764746511.960352,1.71
1764746511.966613,1.41
1764746511.972782,1.02
1764746511.979115,0.65
1764746511.9853508,0.93
1764746511.991491,1.39
1764746511.997828,1.65
1764746512.004043,1.97
1764746512.010337,2.23
1764746512.0165691,2.37
1764746512.02275,2.74
1764746512.02906,2.83
1764746512.035317,2.27
1764746512.041489,2.12
1764746512.047769,2.2
1764746512.054086,2.16
1764746512.060277,2.12
1764746512.06658,1.97
1764746512.072758,1.95
1764746512.079177,1.94
1764746512.0852711,1.93
1764746512.091504,1.67
1764746512.0977752,1.04
1764746512.1040351,0.69
1764746512.110264,0.92
1764746512.116513,1.24
1764746512.122768,1.42
1764746512.1290948,1.37
1764746512.135328,1.61
1764746512.1416042,1.97
1764746512.147697,2.11
1764746512.154021,2.24
1764746512.160316,2.32
1764746512.166501,2.26
1764746512.172796,2.52
1764746512.178977,2.38
1764746512.185271,1.92
1764746512.1916611,1.74
1764746512.197797,2.16
1764746512.20392,2.77
1764746512.210165,2.15
1764746512.216537,2.05
1764746512.22276,1.77
1764746512.229032,0.65
1764746512.235374,0.44
1764746512.241455,1.24
1764746512.247751,1.49
1764746512.2539442,1.32
1764746512.260263,1.54
1764746512.266512,1.62
1764746512.272815,1.65
1764746512.279017,1.55
1764746512.285272,1.51
1764746512.291691,1.59
1764746512.2977548,1.33
1764746512.304262,1.36
1764746512.310299,1.16
1764746512.316501,0.98
1764746512.322825,1.15
1764746512.329036,1.16
1764746512.335446,1.28
1764746512.341432,1.38
1764746512.347733,1.0
1764746512.3540611,1.14
1764746512.3601952,1.14
1764746512.366478,0.99
1764746512.372718,1.19
1764746512.3789592,1.16
1764746512.385899,1.29
1764746512.39158,1.61
1764746512.39771,1.69
1764746512.404214,1.78
1764746512.410305,2.27
1764746512.416513,2.3
1764746512.422739,1.22
1764746512.429096,0.68
1764746512.4352808,0.02
1764746512.44144,0.32
1764746512.4477508,0.8
1764746512.453984,1.11
1764746512.4602208,1.29
1764746512.4665222,1.37
1764746512.472689,1.71
1764746512.4789078,1.83
1764746512.485326,2.02
1764746512.4915211,2.67
1764746512.497658,2.98
1764746512.503951,3.05
1764746512.510261,3.14
1764746512.516601,3.14
1764746512.522743,3.08
1764746512.5289989,2.78
1764746512.535352,2.62
1764746512.54147,2.5
1764746512.54775,2.24
1764746512.553985,2.38
1764746512.560147,2.37
1764746512.56692,2.17
1764746512.572684,1.99
1764746512.5788832,1.99
1764746512.585296,1.96
1764746512.5914052,1.84
1764746512.597619,1.58
1764746512.603916,1.7
1764746512.610323,1.8
1764746512.616504,1.75
1764746512.6227462,1.83
1764746512.6291032,1.89
1764746512.635283,1.95
1764746512.6415622,2.1
1764746512.648008,2.01
1764746512.654076,1.96
1764746512.660445,2.44
1764746512.6664908,2.71
1764746512.672678,2.06
1764746512.6791492,1.19
1764746512.6854231,0.0
1764746512.691692,0.0
1764746512.697821,0.0
1764746512.7039628,0.11
1764746512.71018,0.39
1764746512.716648,0.32
1764746512.722659,0.22
1764746512.729123,1.71
1764746512.735302,2.98
1764746512.7414122,2.4
1764746512.747928,1.89
1764746512.753901,2.16
1764746512.765992,2.28
1764746512.773087,2.14
1764746512.789716,2.14
1764746512.806405,2.13
1764746512.8158998,2.21
1764746512.8396668,1.97
1764746512.846959,1.84
1764746512.847276,2.05
1764746512.847785,1.79
1764746512.84863,1.52
1764746512.848935,1.9
1764746512.850385,1.88
1764746512.8506,1.62
1764746512.850775,1.46
1764746512.851226,1.63
1764746512.8539252,1.71
1764746512.861383,1.53
1764746512.87603,1.47
1764746512.876645,1.59
1764746512.880081,1.36
1764746512.89051,1.53
1764746512.891922,1.87
1764746512.8978171,1.54
1764746512.90405,1.56
1764746512.910163,1.86
1764746512.916663,1.99
1764746512.922635,1.68
1764746512.928909,1.09
1764746512.93553,1.03
1764746512.941568,1.05
1764746512.947672,0.82
1764746512.953891,0.78
1764746512.960135,0.82
1764746512.96668,0.77
1764746512.9725351,1.03
1764746512.978863,1.45
1764746512.985137,1.91
1764746512.991323,2.29
1764746512.997757,2.72
1764746513.003787,3.15
1764746513.010114,3.12
1764746513.016497,2.86
1764746513.022534,2.76
1764746513.0287712,2.67
1764746513.035167,2.32
1764746513.041274,2.01
1764746513.0475469,1.94
1764746513.053813,2.03
1764746513.060089,1.94
1764746513.066357,1.73
1764746513.0727758,1.95
1764746513.0788128,1.74
1764746513.085191,1.27
1764746513.09132,1.16
1764746513.0978198,1.3
1764746513.103808,1.6
1764746513.110026,1.67
1764746513.11638,2.01
1764746513.12254,3.05
1764746513.128901,3.16
1764746513.1351192,3.16
1764746513.141322,2.77
1764746513.1477172,1.23
1764746513.153759,1.03
1764746513.1600971,1.33
1764746513.1663349,1.5
1764746513.172522,0.87
1764746513.178763,0.24
1764746513.185262,1.07
1764746513.1913128,1.8
1764746513.197636,1.56
1764746513.203785,1.68
1764746513.210005,2.23
1764746513.216546,2.29
1764746513.222582,2.15
1764746513.228885,2.13
1764746513.235043,2.3
1764746513.241372,2.22
1764746513.2475882,2.09
1764746513.253741,2.19
1764746513.260027,2.17
1764746513.266485,1.98
1764746513.272658,1.97
1764746513.27878,1.95
1764746513.285137,1.86
1764746513.291209,2.04
1764746513.297568,1.89
1764746513.303773,1.81
1764746513.310036,1.65
1764746513.3163588,1.6
1764746513.322476,1.74
1764746513.328817,1.46
1764746513.335156,1.45
1764746513.3412669,1.65
1764746513.347432,1.7
1764746513.353812,1.69
1764746513.359982,1.56
1764746513.366417,1.87
1764746513.3725178,2.2
1764746513.378759,2.01
1764746513.385086,2.17
1764746513.391232,2.42
1764746513.397554,2.1
1764746513.403726,2.02
1764746513.409985,2.26
1764746513.4168582,2.16
1764746513.4225569,2.37
1764746513.428813,2.7
1764746513.435054,2.17
1764746513.4412138,1.91
1764746513.447454,2.09
1764746513.453753,1.9
1764746513.460018,1.68
1764746513.4665768,1.81
1764746513.472547,1.62
1764746513.47876,0.92
1764746513.485077,0.43
1764746513.4914172,0.49
1764746513.497513,0.65
1764746513.503772,0.91
1764746513.509963,1.32
1764746513.51634,1.67
1764746513.522569,2.14
1764746513.528769,2.46
1764746513.535008,2.64
1764746513.541218,2.77
1764746513.547461,2.5
1764746513.553664,1.9
1764746513.559995,1.26
1764746513.566354,0.62
1764746513.5725272,0.13
1764746513.578892,0.99
1764746513.585015,2.45
1764746513.591226,2.97
1764746513.5974889,2.61
1764746513.603754,2.27
1764746513.609888,1.37
1764746513.6167848,1.31
1764746513.622559,1.73
1764746513.6287758,1.81
1764746513.634994,1.88
1764746513.6412318,1.86
1764746513.647657,1.66
1764746513.653846,1.69
1764746513.659911,1.68
1764746513.666257,1.57
1764746513.6725109,1.54
1764746513.67881,1.43
1764746513.685009,1.55
1764746513.691187,1.69
1764746513.69749,1.31
1764746513.703655,1.19
1764746513.709919,0.94
1764746513.716356,0.71
1764746513.7224388,0.69
1764746513.72878,0.5
1764746513.734968,0.77
1764746513.741157,0.84
1764746513.7475798,0.87
1764746513.7536662,1.1
1764746513.759917,1.37
1764746513.766218,1.24
1764746513.772478,1.03
1764746513.7787268,1.06
1764746513.785044,1.3
1764746513.791179,1.36
1764746513.797662,1.01
1764746513.803641,1.15
1764746513.809924,1.12
1764746513.816233,0.51
1764746513.822369,0.43
1764746513.828779,0.41
1764746513.835103,0.23
1764746513.841147,0.34
1764746513.8475718,0.46
1764746513.85368,0.26
1764746513.85996,0.31
1764746513.866238,0.26
1764746513.872371,0.64
1764746513.8787,0.54
1764746513.88493,0.48
1764746513.891204,0.8
1764746513.8975732,1.02
1764746513.903615,1.17
1764746513.909939,1.18
1764746513.91617,1.26
1764746513.922346,1.57
1764746513.9286468,1.87
1764746513.93495,2.05
1764746513.941213,1.94
1764746513.947396,2.22
1764746513.953655,2.37
1764746513.959858,0.84
1764746513.96629,0.02
1764746513.972369,0.85
1764746513.9787068,1.02
1764746513.984906,0.77
1764746513.991153,0.79
1764746513.997472,0.49
1764746514.003603,0.46
1764746514.009856,0.4
1764746514.016233,0.3
1764746514.022322,0.73
1764746514.02862,1.12
1764746514.034919,1.17
1764746514.041209,1.24
1764746514.0474,1.78
1764746514.05357,2.74
1764746514.059892,3.14
1764746514.066638,2.91
1764746514.072347,2.03
1764746514.078654,0.8
1764746514.085323,0.78
1764746514.091118,1.3
1764746514.097891,0.84
1764746514.103589,0.5
1764746514.109868,0.82
1764746514.117281,0.81
1764746514.122324,0.57
1764746514.128538,0.82
1764746514.134766,1.08
1764746514.14106,0.95
1764746514.1473742,1.2
1764746514.153609,1.56
1764746514.159931,1.67
1764746514.1661649,1.8
1764746514.17236,2.07
1764746514.178685,2.07
1764746514.184959,2.18
1764746514.191201,2.2
1764746514.197459,1.97
1764746514.2036748,1.9
1764746514.209928,1.68
1764746514.216197,1.63
1764746514.222372,1.74
1764746514.228642,1.09
1764746514.2718148,0.58
1764746514.272074,0.66
1764746514.2722838,0.72
1764746514.272489,0.94
1764746514.2726982,1.28
1764746514.272903,1.36
1764746514.27311,1.44
1764746514.308748,1.52
1764746514.308982,1.67
1764746514.3091788,1.57
1764746514.309382,1.33
1764746514.3095849,1.42
1764746514.309806,1.3
1764746514.3493109,0.78
1764746514.35913,0.75
1764746514.367172,0.88
1764746514.36894,0.85
1764746514.369575,0.85
1764746514.369846,0.56
1764746514.370263,0.62
1764746514.370466,0.78
1764746514.370643,0.65
1764746514.37235,0.83
1764746514.378636,1.08
1764746514.394101,0.89
1764746514.394364,1.2
1764746514.397519,1.42
1764746514.4036,1.53
1764746514.409861,1.38
1764746514.416076,1.68
1764746514.422292,1.8
1764746514.428611,1.39
1764746514.434915,1.82
1764746514.441042,1.57
1764746514.4473028,1.24
1764746514.453714,1.57
1764746514.459717,1.8
1764746514.4661398,1.88
1764746514.4722712,1.82
1764746514.47848,1.53
1764746514.484726,1.78
1764746514.491008,1.53
1764746514.497309,1.67
1764746514.5034492,2.32
1764746514.509699,1.6
1764746514.516122,1.48
1764746514.5223072,2.83
1764746514.528503,3.08
1764746514.534772,2.32
1764746514.541043,1.03
1764746514.547298,0.31
1764746514.5534751,0.53
1764746514.5599182,0.38
1764746514.566082,0.02
1764746514.572305,0.89
1764746514.578503,1.37
1764746514.584756,1.17
1764746514.59094,1.35
1764746514.597257,1.6
1764746514.6034958,1.81
1764746514.6097112,1.67
1764746514.6160011,1.49
1764746514.6222432,1.63
1764746514.6285288,1.52
1764746514.634868,1.38
1764746514.64098,1.33
1764746514.647431,1.12
1764746514.653536,0.68
1764746514.6597362,0.04
1764746514.6660402,0.4
1764746514.672253,1.88
1764746514.678453,1.78
1764746514.6847308,1.41
1764746514.691036,1.79
1764746514.697375,1.92
1764746514.703508,1.88
1764746514.70977,2.11
1764746514.716081,2.27
1764746514.722236,2.56
1764746514.7286642,2.57
1764746514.73469,2.56
1764746514.740993,2.62
1764746514.747316,2.6
1764746514.753524,2.57
1764746514.759638,2.47
1764746514.7660532,2.35
1764746514.7722,2.46
1764746514.778559,2.37
1764746514.784734,1.84
1764746514.7909818,1.58
1764746514.7976,1.23
1764746514.803521,1.2
1764746514.80967,1.75
1764746514.816031,1.72
1764746514.822198,1.65
1764746514.828435,1.81
1764746514.8346949,1.89
1764746514.8409238,1.69
1764746514.847272,1.8
1764746514.8533618,2.18
1764746514.85969,2.24
1764746514.866049,1.94
1764746514.872146,1.85
1764746514.878432,1.84
1764746514.884744,1.78
1764746514.8909252,1.68
1764746514.897446,1.46
1764746514.9034271,1.13
1764746514.909801,1.22
1764746514.9160728,1.18
1764746514.922175,1.07
1764746514.928444,1.02
1764746514.934798,0.95
1764746514.94104,1.03
1764746514.947181,1.09
1764746514.953442,0.92
1764746514.9596212,0.65
1764746514.9664562,0.99
1764746514.9720871,1.48
1764746514.9783978,1.82
1764746514.984685,2.66
1764746514.9910588,3.16
1764746514.997243,3.13
1764746515.003424,2.28
1764746515.009634,1.3
1764746515.01622,1.66
1764746515.0221188,2.12
1764746515.0284128,1.89
1764746515.034629,1.73
1764746515.040944,1.59
1764746515.0471869,1.61
1764746515.0533729,1.48
1764746515.059698,0.96
1764746515.066719,0.87
1764746515.072178,1.06
1764746515.0784588,1.18
1764746515.0847092,1.28
1764746515.090848,1.4
1764746515.097118,1.64
1764746515.103369,1.77
1764746515.109658,1.78
1764746515.1162171,1.9
1764746515.1220531,2.16
1764746515.128364,2.47
1764746515.134667,2.51
1764746515.141002,2.43
1764746515.14718,2.38
1764746515.153273,2.35
1764746515.159606,2.23
1764746515.1662238,2.22
1764746515.172182,2.19
1764746515.17837,1.95
1764746515.184675,1.94
1764746515.190857,2.11
1764746515.197112,1.88
1764746515.203439,1.36
1764746515.209623,1.37
1764746515.2159512,1.47
1764746515.222133,1.44
1764746515.228398,1.11
1764746515.234623,0.65
1764746515.240895,0.18
1764746515.247244,0.25
1764746515.253439,0.98
1764746515.259593,1.32
1764746515.266762,1.35
1764746515.272141,1.88
1764746515.2783391,2.47
1764746515.2847528,2.68
1764746515.290844,3.0
1764746515.2972429,3.08
1764746515.303383,3.03
1764746515.309723,2.85
1764746515.3158882,2.08
1764746515.322132,1.84
1764746515.3283148,2.06
1764746515.334601,1.93
1764746515.340783,1.77
1764746515.347096,1.7
1764746515.353398,1.79
1764746515.3595562,1.82
1764746515.365904,1.81
1764746515.372107,1.9
1764746515.378286,2.01
1764746515.384584,1.87
1764746515.3908522,1.93
1764746515.3971698,1.9
1764746515.403396,1.74
1764746515.409555,1.55
1764746515.415938,1.38
1764746515.422135,1.52
1764746515.428391,1.51
1764746515.434696,1.42
1764746515.440903,1.76
1764746515.447123,2.03
1764746515.453314,2.79
1764746515.459636,3.12
1764746515.465826,2.58
1764746515.472062,1.24
1764746515.478359,0.6
1764746515.484468,1.12
1764746515.490771,1.44
1764746515.4970582,1.38
1764746515.503268,1.69
1764746515.509513,1.54
1764746515.51582,1.74
1764746515.52201,2.07
1764746515.5282948,2.16
1764746515.534537,2.25
1764746515.540735,2.41
1764746515.5471091,2.32
1764746515.55328,2.34
1764746515.55955,2.15
1764746515.5658891,1.9
1764746515.572177,2.15
1764746515.578282,2.32
1764746515.5846138,2.11
1764746515.590715,1.43
1764746515.5970392,1.2
1764746515.603285,1.26
1764746515.609505,1.21
1764746515.615922,1.46
1764746515.622179,1.78
1764746515.6283112,1.68
1764746515.634472,1.9
1764746515.640766,2.48
1764746515.647249,2.75
1764746515.653305,2.87
1764746515.659497,2.78
1764746515.665897,2.43
1764746515.671971,2.24
1764746515.6782012,2.23
1764746515.68448,2.44
1764746515.690796,2.53
1764746515.6970031,2.58
1764746515.7032378,2.71
1764746515.709461,2.44
1764746515.715894,2.34
1764746515.722081,2.46
1764746515.72845,2.27
1764746515.734578,2.0
1764746515.7407732,2.0
1764746515.747093,2.01
1764746515.753333,1.88
1764746515.759564,1.88
1764746515.7658129,1.88
1764746515.7720032,2.05
1764746515.778252,2.15
1764746515.784544,2.18
1764746515.790762,2.71
1764746515.79717,3.09
1764746515.803175,3.15
1764746515.809514,3.15
1764746515.815795,3.16
1764746515.821965,3.16
1764746515.828151,3.16
1764746515.834402,3.05
1764746515.840668,2.09
1764746515.846951,2.01
1764746515.8532858,2.04
1764746515.859489,1.19
1764746515.865804,1.41
1764746515.872056,2.01
1764746515.878169,1.89
1764746515.884496,1.7
1764746515.8906949,1.82
1764746515.897007,1.64
1764746515.903191,1.53
1764746515.9094322,1.88
1764746515.91593,2.66
1764746515.9228191,3.14
1764746515.937466,3.0
1764746515.949227,2.25
1764746515.949413,1.24
1764746515.958689,1.21
1764746515.958893,1.16
1764746515.9830558,1.04
1764746515.983857,1.13
1764746515.984424,1.21
1764746515.984616,0.91
1764746515.984859,1.0
1764746515.994171,0.96
1764746516.008173,0.89
1764746516.0085912,1.13
1764746516.010186,0.96
1764746516.0190709,1.01
1764746516.022014,1.12
1764746516.029197,1.22
1764746516.0344708,1.41
1764746516.040863,1.62
1764746516.047007,1.79
1764746516.053338,2.43
1764746516.059521,2.18
1764746516.0658188,1.92
1764746516.072059,2.36
1764746516.0784051,2.52
1764746516.0845098,2.29
1764746516.090869,2.55
1764746516.100024,2.44
1764746516.106886,2.55
1764746516.1094668,2.26
1764746516.115734,1.41
1764746516.122066,1.15
1764746516.1282969,1.34
1764746516.1345222,1.21
1764746516.140806,0.95
1764746516.146904,0.87
1764746516.153229,1.16
1764746516.1594849,1.49
1764746516.1666718,1.53
1764746516.1719449,1.47
1764746516.1782022,1.6
1764746516.184515,1.79
1764746516.190812,1.82
1764746516.1969202,1.67
1764746516.203131,1.69
1764746516.209375,1.67
1764746516.215682,1.44
1764746516.221965,1.42
1764746516.228191,1.42
1764746516.2343569,1.4
1764746516.240674,1.51
1764746516.246929,1.25
1764746516.2531798,0.98
1764746516.2594628,1.21
1764746516.265735,1.24
1764746516.271853,0.99
1764746516.2783291,0.7
1764746516.2843251,0.69
1764746516.290722,0.66
1764746516.2969768,1.0
1764746516.303016,1.76
1764746516.309387,2.12
1764746516.315676,2.22
1764746516.322067,2.63
1764746516.328119,3.11
1764746516.334333,3.0
1764746516.3406012,2.75
1764746516.3468869,2.22
1764746516.353159,1.62
1764746516.3594,1.38
1764746516.365876,1.16
1764746516.371918,0.85
1764746516.378101,1.22
1764746516.384382,2.35
1764746516.390574,3.13
1764746516.396872,2.59
1764746516.4030778,1.09
1764746516.409442,1.08
1764746516.4156082,1.61
1764746516.421819,1.63
1764746516.428122,1.64
1764746516.434342,1.62
1764746516.440581,1.54
1764746516.446896,1.24
1764746516.45311,1.22
1764746516.4593222,1.37
1764746516.4656398,1.21
1764746516.471824,1.15
1764746516.478107,1.09
1764746516.4843469,1.09
1764746516.4906292,1.21
1764746516.496879,1.01
1764746516.5030851,1.05
1764746516.509471,1.1
1764746516.5156631,0.8
1764746516.5219562,0.81
1764746516.5281012,1.12
1764746516.534355,1.4
1764746516.5405598,1.9
1764746516.546846,1.8
1764746516.553054,1.75
1764746516.559325,1.85
1764746516.565536,2.01
1764746516.571988,2.24
1764746516.578221,2.24
1764746516.584242,2.33
1764746516.590674,2.31
1764746516.596892,2.2
1764746516.603012,2.1
1764746516.6093178,1.91
1764746516.61565,2.08
1764746516.621737,2.23
1764746516.6280231,1.46
1764746516.63423,1.18
1764746516.6405408,1.06
1764746516.6467588,0.75
1764746516.652989,0.92
1764746516.659316,1.01
1764746516.665598,0.84
1764746516.671751,1.09
1764746516.678061,1.36
1764746516.684264,1.55
1764746516.690596,1.79
1764746516.696782,2.11
1764746516.7030358,2.22
1764746516.709318,2.15
1764746516.7154691,1.83
1764746516.721778,1.71
1764746516.728014,1.72
1764746516.734307,1.34
1764746516.740522,1.35
1764746516.7467752,1.52
1764746516.753071,1.05
1764746516.759346,0.72
1764746516.7655098,0.6
1764746516.771689,0.33
1764746516.778002,0.0
1764746516.7841852,0.0
1764746516.790512,0.34
1764746516.79673,1.16
1764746516.803012,1.45
1764746516.809314,1.62
1764746516.815659,1.84
1764746516.821662,1.83
1764746516.828012,2.09
1764746516.834294,2.47
1764746516.8405,3.09
1764746516.8468008,3.11
1764746516.85296,3.12
1764746516.8592482,3.12
1764746516.8656309,3.12
1764746516.871671,2.69
1764746516.8779671,1.58
1764746516.884223,1.66
1764746516.890521,1.71
1764746516.8968089,1.32
1764746516.902974,0.79
1764746516.909269,0.65
1764746516.915613,1.06
1764746516.9217632,1.28
1764746516.9280488,0.99
1764746516.934366,0.97
1764746516.940469,1.21
1764746516.94679,1.08
1764746516.953053,0.95
1764746516.959272,1.07
1764746516.965473,0.98
1764746516.97165,0.99
1764746516.9779708,1.11
1764746516.984236,1.12
1764746516.990452,1.01
1764746516.996709,0.95
1764746517.002903,0.85
1764746517.009364,0.89
1764746517.015574,0.85
1764746517.021783,0.8
1764746517.027951,0.74
1764746517.034222,0.6
1764746517.040427,0.67
1764746517.046825,0.43
1764746517.0529652,0.12
1764746517.05919,0.29
1764746517.065511,0.39
1764746517.071743,0.52
1764746517.077912,0.63
1764746517.08422,0.89
1764746517.09049,1.19
1764746517.096863,1.22
1764746517.1029062,1.48
1764746517.1092029,1.5
1764746517.115511,1.19
1764746517.121684,1.44
1764746517.127923,1.75
1764746517.134142,1.99
1764746517.140435,1.61
1764746517.146701,0.76
1764746517.152917,1.16
1764746517.159214,1.52
1764746517.1654882,1.02
1764746517.171676,0.92
1764746517.17786,1.18
1764746517.184142,1.24
1764746517.190446,1.32
1764746517.196676,1.7
1764746517.2028852,1.76
1764746517.209148,1.46
1764746517.215583,1.36
1764746517.221627,1.43
1764746517.2278788,1.35
1764746517.234143,1.23
1764746517.240442,1.32
1764746517.246664,1.31
1764746517.252865,1.26
1764746517.259223,1.05
1764746517.265448,0.91
1764746517.271618,1.17
1764746517.277893,1.13
1764746517.2841148,0.96
1764746517.290406,0.94
1764746517.296654,1.16
1764746517.302904,1.35
1764746517.309196,1.8
1764746517.315487,2.61
1764746517.3216152,2.94
1764746517.327936,2.39
1764746517.334157,1.0
1764746517.340378,0.31
1764746517.346642,0.73
1764746517.352912,0.95
1764746517.359139,0.89
1764746517.365469,0.96
1764746517.3715782,1.09
1764746517.377855,1.19
1764746517.384213,1.33
1764746517.390302,1.34
1764746517.3966348,1.33
1764746517.402858,1.41
1764746517.409218,1.44
1764746517.415502,1.49
1764746517.421574,1.48
1764746517.427903,1.06
1764746517.434068,0.92
1764746517.440353,1.26
1764746517.4466271,1.12
1764746517.458604,1.03
1764746517.463266,1.0
1764746517.476395,0.83
1764746517.492162,1.01
1764746517.4933388,1.3
1764746517.494731,1.52
1764746517.494844,1.72
1764746517.5020711,1.72
1764746517.502923,1.36
1764746517.512812,1.11
1764746517.51677,1.28
1764746517.527528,1.55
1764746517.528385,1.33
1764746517.534123,0.98
1764746517.540458,0.97
1764746517.546726,0.78
1764746517.5529711,0.49
1764746517.5591922,0.54
1764746517.565431,0.49
1764746517.571637,0.51
1764746517.577923,0.61
1764746517.584147,0.62
1764746517.590333,0.84
1764746517.596643,0.9
1764746517.602873,0.64
1764746517.609126,0.77
1764746517.615641,0.95
1764746517.62172,1.07
1764746517.627972,1.22
1764746517.634132,1.34
1764746517.640413,1.51
1764746517.646673,1.47
1764746517.652769,1.61
1764746517.6590312,1.8
1764746517.66534,1.78
1764746517.671502,1.7
1764746517.677943,1.54
1764746517.684176,1.67
1764746517.6903229,1.6
1764746517.696657,1.13
1764746517.702857,1.12
1764746517.709065,1.44
1764746517.715356,0.99
1764746517.7215538,0.62
1764746517.7277749,1.06
1764746517.734057,1.09
1764746517.740342,0.98
1764746517.746586,0.99
1764746517.75283,0.88
1764746517.759032,0.83
1764746517.765375,1.16
1764746517.771534,1.53
1764746517.777808,1.83
1764746517.784016,2.55
1764746517.790327,3.08
1764746517.7966132,3.06
1764746517.8029451,2.5
1764746517.809242,1.21
1764746517.81533,1.26
1764746517.821583,1.76
1764746517.827923,1.52
1764746517.834037,1.18
1764746517.840437,1.14
1764746517.846837,1.02
1764746517.852972,0.94
1764746517.859113,1.0
1764746517.865332,0.9
1764746517.871618,0.74
1764746517.8779678,0.54
1764746517.883998,0.87
1764746517.8902972,1.43
1764746517.896756,1.17
1764746517.902792,1.2
1764746517.909065,1.61
1764746517.9152992,1.79
1764746517.921578,1.96
1764746517.927818,2.13
1764746517.934044,2.22
1764746517.940215,2.37
1764746517.946671,2.43
1764746517.952822,2.35
1764746517.959018,2.22
1764746517.96528,1.85
1764746517.971463,1.63
1764746517.9778051,1.39
1764746517.9840388,0.85
1764746517.990218,0.56
1764746517.9966002,0.32
1764746518.002771,0.3
1764746518.00916,1.43
1764746518.0152,1.76
1764746518.02147,1.42
1764746518.027922,1.61
1764746518.034019,1.95
1764746518.040274,2.11
1764746518.046774,1.99
1764746518.052804,1.77
1764746518.059037,1.52
1764746518.06529,1.22
1764746518.071671,1.24
1764746518.077864,1.15
1764746518.084061,0.88
1764746518.0904472,1.05
1764746518.096579,1.02
1764746518.102741,0.95
1764746518.109022,1.09
1764746518.11524,1.13
1764746518.1214871,1.24
1764746518.127764,1.38
1764746518.133952,1.38
1764746518.14024,1.44
1764746518.146501,1.4
1764746518.152672,1.6
1764746518.159128,1.64
1764746518.165204,1.35
1764746518.171507,1.55
1764746518.178001,1.81
1764746518.184128,1.91
1764746518.190175,1.77
1764746518.1966982,1.67
1764746518.202629,1.51
1764746518.2090108,1.44
1764746518.21521,1.51
1764746518.221459,1.66
1764746518.227764,1.65
1764746518.2339132,1.56
1764746518.24018,1.17
1764746518.246552,0.96
1764746518.252657,2.19
1764746518.258997,3.12
1764746518.265237,2.8
1764746518.271434,1.74
1764746518.277813,0.55
1764746518.2840252,0.63
1764746518.290221,1.46
1764746518.296492,1.92
1764746518.302642,2.15
1764746518.309001,2.39
1764746518.315315,2.05
1764746518.321459,1.76
1764746518.327901,2.04
1764746518.333934,1.77
1764746518.340132,1.39
1764746518.3474948,1.61
1764746518.353081,1.89
1764746518.359116,1.91
1764746518.365381,1.64
1764746518.371409,1.59
1764746518.377764,1.71
1764746518.3839328,1.62
1764746518.39035,1.53
1764746518.396443,1.36
1764746518.402664,1.2
1764746518.409015,1.33
1764746518.4151978,1.35
1764746518.421659,1.25
1764746518.427753,1.35
1764746518.434027,1.45
1764746518.440149,1.51
1764746518.446563,1.69
1764746518.452605,1.94
1764746518.459081,2.31
1764746518.465232,2.38
1764746518.471522,2.47
1764746518.477692,2.57
1764746518.483944,2.42
1764746518.4901729,2.37
1764746518.496833,2.26
1764746518.5025878,2.19
1764746518.508991,2.18
1764746518.515171,2.24
1764746518.521399,2.09
1764746518.527719,1.96
1764746518.5339131,1.83
1764746518.54019,1.6
1764746518.5473568,1.38
1764746518.5525708,1.52
1764746518.55888,1.74
1764746518.565245,1.58
1764746518.571341,1.68
1764746518.577657,1.95
1764746518.583806,1.93
1764746518.590052,2.0
1764746518.5964,2.17
1764746518.602581,2.19
1764746518.6088052,2.12
1764746518.6151402,1.87
1764746518.621355,1.77
1764746518.627668,1.75
1764746518.6339042,1.46
1764746518.640139,1.36
1764746518.646438,1.45
1764746518.652562,1.42
1764746518.658864,1.27
1764746518.665133,1.19
1764746518.6714969,1.23
1764746518.677839,1.26
1764746518.68385,1.14
1764746518.69014,1.39
1764746518.696647,1.5
1764746518.7026298,1.55
1764746518.7090318,1.52
1764746518.715242,1.83
1764746518.721395,2.84
1764746518.728256,3.16
1764746518.733844,3.15
1764746518.7401412,2.83
1764746518.746766,1.18
1764746518.7525918,0.9
1764746518.7589,1.45
1764746518.765182,1.34
1764746518.77137,1.3
1764746518.777604,1.53
1764746518.783912,1.69
1764746518.790169,1.97
1764746518.796658,1.89
1764746518.802642,1.16
1764746518.8088949,1.52
1764746518.815163,1.91
1764746518.8213382,1.69
1764746518.82768,1.75
1764746518.833836,1.93
1764746518.840052,1.96
1764746518.846457,1.77
1764746518.852528,1.85
1764746518.858891,2.14
1764746518.865184,2.21
1764746518.871335,2.32
1764746518.877601,2.43
1764746518.8838022,2.38
1764746518.890105,2.49
1764746518.89645,2.51
1764746518.902557,2.44
1764746518.908949,2.42
1764746518.915084,2.36
1764746518.92134,2.28
1764746518.927551,2.15
1764746518.933718,1.85
1764746518.940066,1.56
1764746518.94643,1.39
1764746518.9524858,1.25
1764746518.958814,1.31
1764746518.965112,1.27
1764746518.97138,1.34
1764746518.977665,1.58
1764746518.9838662,1.32
1764746518.990038,1.32
1764746518.996361,1.71
1764746519.002527,2.09
1764746519.008798,2.46
1764746519.01517,2.61
1764746519.021337,2.7
1764746519.0275671,2.61
1764746519.033773,2.23
1764746519.0400882,2.19
1764746519.046397,2.3
1764746519.052591,2.34
1764746519.0589,2.3
1764746519.065214,2.14
1764746519.071319,2.29
1764746519.077591,2.27
1764746519.0838232,1.75
1764746519.090018,1.75
1764746519.096509,2.11
1764746519.10255,2.09
1764746519.1089878,1.95
1764746519.141264,1.92
1764746519.1414652,2.06
1764746519.231053,2.05
1764746519.231383,1.71
1764746519.233075,1.55
1764746519.233597,1.57
1764746519.2338922,1.47
1764746519.234169,1.41
1764746519.234424,1.34
1764746519.234693,1.22
1764746519.2349608,1.16
1764746519.235245,1.22
1764746519.2355258,1.49
1764746519.235808,2.17
1764746519.236078,2.66
1764746519.23639,2.75
1764746519.2366989,1.98
1764746519.236964,0.67
1764746519.237257,0.52
1764746519.2375271,1.03
1764746519.240051,1.05
1764746519.24677,0.89
1764746519.2678888,0.95
1764746519.268203,1.11
1764746519.268464,1.44
1764746519.271321,1.72
1764746519.2777002,1.67
1764746519.2838132,1.59
1764746519.2900212,1.67
1764746519.296281,1.59
1764746519.3025138,1.73
1764746519.308783,1.82
1764746519.315275,1.74
1764746519.32129,1.66
1764746519.327622,1.23
1764746519.333837,0.77
1764746519.340039,1.14
1764746519.3464,1.27
1764746519.3525271,1.34
1764746519.3587468,1.52
1764746519.365043,1.42
1764746519.371337,1.38
1764746519.377616,1.49
1764746519.383761,1.63
1764746519.390026,1.71
1764746519.3975492,1.77
1764746519.402487,2.11
1764746519.408683,2.49
1764746519.415188,2.54
1764746519.421224,2.57
1764746519.427497,2.63
1764746519.43374,2.42
1764746519.440102,2.41
1764746519.446521,2.14
1764746519.452449,1.95
1764746519.458748,2.33
1764746519.465098,2.19
1764746519.471242,1.47
1764746519.4774668,1.22
1764746519.483695,1.42
1764746519.489874,1.75
1764746519.496266,1.82
1764746519.502532,1.76
1764746519.5087738,1.86
1764746519.514998,1.9
1764746519.521167,1.95
1764746519.527494,2.06
1764746519.53384,1.94
1764746519.539979,1.8
1764746519.546419,1.89
1764746519.552449,2.08
1764746519.558785,2.18
1764746519.5649338,2.11
1764746519.5712278,2.03
1764746519.577504,2.11
1764746519.583673,2.03
1764746519.5902011,1.97
1764746519.5963311,1.74
1764746519.602425,1.54
1764746519.608611,1.46
1764746519.6150882,1.52
1764746519.621137,1.61
1764746519.627414,1.52
1764746519.633564,1.47
1764746519.639885,1.59
1764746519.646242,1.61
1764746519.652451,1.59
1764746519.658674,1.61
1764746519.664885,1.49
1764746519.6712582,1.84
1764746519.677492,2.75
1764746519.683771,2.74
1764746519.689926,2.3
1764746519.6968052,1.29
1764746519.702349,0.49
1764746519.708746,0.83
1764746519.714887,0.96
1764746519.721117,0.75
1764746519.727539,0.79
1764746519.7336478,0.84
1764746519.740032,0.9
1764746519.7466938,0.88
1764746519.752357,1.18
1764746519.7586792,1.28
1764746519.76491,1.15
1764746519.771132,1.52
1764746519.777699,1.61
1764746519.783649,1.52
1764746519.789817,1.58
1764746519.796173,1.86
1764746519.8025851,1.84
1764746519.808639,1.67
1764746519.814841,1.57
1764746519.821122,1.77
1764746519.827461,2.02
1764746519.83365,2.54
1764746519.839939,2.68
1764746519.846194,1.55
1764746519.8523462,1.52
1764746519.8586922,2.27
1764746519.8649,2.03
1764746519.87111,1.68
1764746519.877462,1.75
1764746519.883549,1.45
1764746519.889843,0.99
1764746519.896068,0.67
1764746519.902297,0.81
1764746519.908624,1.16
1764746519.9148889,1.43
1764746519.921154,1.76
1764746519.927454,2.11
1764746519.933611,2.24
1764746519.939878,2.43
1764746519.946128,2.63
1764746519.952328,2.43
1764746519.958632,2.21
1764746519.9648068,2.06
1764746519.971021,1.83
1764746519.977408,1.78
1764746519.9835489,1.79
1764746519.989826,1.63
1764746519.996193,1.55
1764746520.002456,1.64
1764746520.008613,1.73
1764746520.0148768,1.66
1764746520.021329,1.96
1764746520.027405,2.34
1764746520.0337632,2.1
1764746520.039927,2.1
1764746520.046338,2.26
1764746520.052214,2.11
1764746520.0585642,1.9
1764746520.064836,1.71
1764746520.071143,1.65
1764746520.0774322,1.58
1764746520.083532,1.45
1764746520.089797,1.43
1764746520.096351,1.22
1764746520.1023302,1.73
1764746520.108541,1.94
1764746520.114836,1.45
1764746520.120994,1.43
1764746520.127354,1.85
1764746520.133604,1.85
1764746520.139843,1.87
1764746520.1460311,2.57
1764746520.152344,3.16
1764746520.1586251,3.16
1764746520.1650612,3.15
1764746520.1710951,2.34
1764746520.177451,1.2
1764746520.183579,1.36
1764746520.189922,1.75
1764746520.196139,1.57
1764746520.202353,1.31
1764746520.208426,1.37
1764746520.21475,1.3
1764746520.221088,1.31
1764746520.227853,1.34
1764746520.233654,1.26
1764746520.2398489,1.19
1764746520.246106,1.1
1764746520.2522602,0.89
1764746520.25851,0.75
1764746520.26485,0.94
1764746520.2711082,1.09
1764746520.2773929,1.12
1764746520.28355,1.22
1764746520.2898188,1.38
1764746520.296103,1.37
1764746520.302377,1.51
1764746520.3085902,1.56
1764746520.314883,1.61
1764746520.321126,1.74
1764746520.327488,1.92
1764746520.3335629,1.78
1764746520.339958,1.82
1764746520.346022,1.89
1764746520.3521888,2.07
1764746520.358526,1.95
1764746520.3648,1.3
1764746520.371077,1.46
1764746520.377343,1.55
1764746520.3834612,1.22
1764746520.38973,1.1
1764746520.39607,1.17
1764746520.4022138,1.31
1764746520.408465,1.24
1764746520.4148202,0.95
1764746520.4209988,1.22
1764746520.427319,1.76
1764746520.433581,1.91
1764746520.439693,1.97
1764746520.44609,2.1
1764746520.452236,2.06
1764746520.458474,2.06
1764746520.4647622,1.81
1764746520.4712589,1.57
1764746520.477354,1.59
1764746520.4835331,1.52
1764746520.489824,1.55
1764746520.496288,1.67
1764746520.502209,1.79
1764746520.508385,1.94
1764746520.514797,1.94
1764746520.521087,2.13
1764746520.527362,2.14
1764746520.5334752,1.9
1764746520.539741,1.94
1764746520.546035,1.9
1764746520.5521548,1.75
1764746520.558509,1.77
1764746520.56493,1.65
1764746520.571132,1.51
1764746520.577281,1.39
1764746520.583511,1.28
1764746520.589851,1.29
1764746520.596591,1.17
1764746520.602159,1.06
1764746520.6084428,1.21
1764746520.614788,1.28
1764746520.620959,1.9
1764746520.627275,2.35
1764746520.6340978,2.31
1764746520.6572218,1.82
1764746520.674693,0.75
1764746520.683939,0.69
1764746520.700659,1.41
1764746520.7145128,1.44
1764746520.715019,1.36
1764746520.715271,1.47
1764746520.7154791,1.38
1764746520.715735,1.3
1764746520.71589,1.19
1764746520.71605,1.01
1764746520.716222,1.0
1764746520.716387,1.01
1764746520.720923,0.97
1764746520.727872,0.97
1764746520.736303,0.96
1764746520.739653,1.15
1764746520.747187,1.26
1764746520.752182,1.26
1764746520.7584362,1.17
1764746520.764719,1.02
1764746520.770933,1.11
1764746520.777208,1.14
1764746520.783378,1.09
1764746520.789645,1.15
1764746520.795934,1.24
1764746520.802194,1.18
1764746520.8085718,1.3
1764746520.814684,1.45
1764746520.820875,1.65
1764746520.827176,1.63
1764746520.833368,1.56
1764746520.839612,1.69
1764746520.846187,1.77
1764746520.8521202,1.91
1764746520.858413,2.25
1764746520.864676,2.43
1764746520.870987,2.12
1764746520.877129,1.56
1764746520.8834088,1.64
1764746520.889622,1.95
1764746520.895928,1.78
1764746520.902147,1.72
1764746520.908332,1.81
1764746520.91467,1.73
1764746520.920873,1.8
1764746520.927174,1.81
1764746520.9334211,1.72
1764746520.9396212,1.74
1764746520.9459982,1.83
1764746520.952231,1.9
1764746520.958308,1.98
1764746520.964611,2.14
1764746520.970913,2.32
1764746520.977083,2.26
1764746520.983282,2.0
1764746520.989596,1.98
1764746520.9958742,1.81
1764746521.002064,1.56
1764746521.008269,1.54
1764746521.014679,1.42
1764746521.020832,1.36
1764746521.027117,1.42
1764746521.033312,1.4
1764746521.0397298,1.41
1764746521.04587,1.39
1764746521.052167,1.48
1764746521.0582988,1.4
1764746521.064592,1.22
1764746521.070903,1.15
1764746521.077121,1.3
1764746521.083358,1.38
1764746521.08968,2.15
1764746521.095843,2.92
1764746521.102132,2.93
1764746521.108261,2.34
1764746521.11449,1.08
1764746521.12081,0.91
1764746521.12706,1.35
1764746521.133225,1.42
1764746521.139598,1.66
1764746521.145947,1.81
1764746521.152033,1.55
1764746521.1583612,1.47
1764746521.164683,1.87
1764746521.170795,2.01
1764746521.177095,1.62
1764746521.183242,1.6
1764746521.189535,1.91
1764746521.195869,1.97
1764746521.202025,1.94
1764746521.2083268,2.06
1764746521.214541,2.04
1764746521.220788,1.96
1764746521.2270348,2.1
1764746521.233238,2.31
1764746521.239512,2.36
1764746521.245878,2.21
1764746521.252127,2.11
1764746521.258248,2.0
1764746521.2645388,1.92
1764746521.27081,1.84
1764746521.277071,1.74
1764746521.283245,1.65
1764746521.28958,1.74
1764746521.295923,1.69
1764746521.30219,1.52
1764746521.3083289,1.54
1764746521.314608,1.41
1764746521.3207848,1.56
1764746521.327078,1.52
1764746521.333332,1.39
1764746521.339532,1.41
1764746521.346011,1.37
1764746521.352059,1.49
1764746521.3583272,1.5
1764746521.364552,1.49
1764746521.370796,1.59
1764746521.377,1.65
1764746521.383164,1.53
1764746521.389627,1.65
1764746521.3957791,1.92
1764746521.402022,2.56
1764746521.4083169,2.26
1764746521.414638,0.95
1764746521.420761,1.07
1764746521.427024,1.8
1764746521.433204,1.41
1764746521.43952,1.22
1764746521.445909,1.51
1764746521.452124,1.68
1764746521.4582531,1.57
1764746521.464469,1.53
1764746521.47073,1.69
1764746521.477,2.08
1764746521.483213,2.4
1764746521.489404,2.58
1764746521.495701,2.56
1764746521.5020218,2.34
1764746521.508211,2.18
1764746521.514501,2.07
1764746521.520698,2.08
1764746521.527024,2.12
1764746521.533248,2.01
1764746521.539486,1.88
1764746521.545843,1.65
1764746521.552066,1.34
1764746521.558313,1.62
1764746521.564504,2.44
1764746521.570747,3.04
1764746521.5769842,2.82
1764746521.583146,1.82
1764746521.5894132,0.7
1764746521.595746,0.75
1764746521.601969,1.23
1764746521.6081789,1.24
1764746521.6146529,1.06
1764746521.6207108,1.28
1764746521.626935,1.26
1764746521.6331468,1.27
1764746521.639476,1.31
1764746521.6457732,1.22
1764746521.651973,1.28
1764746521.658156,1.44
1764746521.6644852,1.46
1764746521.670628,1.7
1764746521.676886,1.99
1764746521.68314,1.58
1764746521.689481,1.33
1764746521.695754,1.53
1764746521.701931,1.76
1764746521.708183,1.9
1764746521.7143948,1.91
1764746521.720661,2.1
1764746521.726889,2.22
1764746521.733109,2.24
1764746521.7394109,2.22
1764746521.745764,1.98
1764746521.751938,1.78
1764746521.758187,1.62
1764746521.764439,1.34
1764746521.7707012,1.22
1764746521.776927,1.29
1764746521.783104,1.18
1764746521.789407,1.08
1764746521.79587,1.06
1764746521.8020322,1.08
1764746521.808358,1.15
1764746521.814442,1.07
1764746521.820645,0.86
1764746521.826976,0.84
1764746521.833065,0.85
1764746521.8394,0.87
1764746521.84566,0.9
1764746521.851895,1.07
1764746521.858075,1.19
1764746521.8643389,1.22
1764746521.870655,1.36
1764746521.8769548,1.49
1764746521.883067,1.49
1764746521.889415,1.46
1764746521.895689,1.39
1764746521.901919,1.45
1764746521.908281,1.53
1764746521.914477,1.58
1764746521.920675,1.61
1764746521.92693,1.46
1764746521.933102,1.32
1764746521.939441,1.61
1764746521.945725,1.75
1764746521.952052,1.35
1764746521.958266,1.19
1764746521.964407,1.0
1764746521.9706612,0.73
1764746521.977053,1.09
1764746521.98307,1.04
1764746521.98946,0.84
1764746521.995656,1.0
1764746522.001895,1.16
1764746522.0081449,1.13
1764746522.014574,1.09
1764746522.020631,1.29
1764746522.027228,1.64
1764746522.033251,2.2
1764746522.039365,3.04
1764746522.045645,3.15
1764746522.051989,3.11
1764746522.058123,2.15
1764746522.064397,1.09
1764746522.0706172,1.53
1764746522.077416,1.82
1764746522.083116,1.43
1764746522.089518,1.19
1764746522.09567,1.09
1764746522.101859,0.68
1764746522.108135,0.61
1764746522.114462,1.28
1764746522.120686,1.66
1764746522.126956,1.51
1764746522.133022,1.25
1764746522.139344,1.18
1764746522.145604,1.27
1764746522.151853,1.39
1764746522.158153,1.66
1764746522.164363,1.75
1764746522.170578,1.8
1764746522.176918,1.97
1764746522.183069,1.96
1764746522.189451,2.04
1764746522.195619,2.06
1764746522.201882,1.96
1764746522.2082062,1.88
1764746522.2143512,1.96
1764746522.220606,1.97
1764746522.226964,1.71
1764746522.233058,1.58
1764746522.239456,1.57
1764746522.245623,1.87
1764746522.251869,2.04
1764746522.258442,1.75
1764746522.264246,1.7
1764746522.270613,1.92
1764746522.277344,2.12
1764746522.288887,2.0
1764746522.2919948,1.75
1764746522.310943,1.72
1764746522.311139,1.72
1764746522.311314,1.65
1764746522.347661,1.61
1764746522.3478022,1.63
1764746522.347892,1.85
1764746522.347976,1.93
1764746522.34806,1.91
1764746522.348142,1.93
1764746522.360183,1.88
1764746522.360324,1.67
1764746522.375069,1.46
1764746522.379604,1.33
1764746522.380007,1.39
1764746522.383164,1.39
1764746522.3894458,1.42
1764746522.396121,1.39
1764746522.403305,1.32
1764746522.408101,1.36
1764746522.41452,1.26
1764746522.4206212,1.22
1764746522.4267871,1.37
1764746522.4330618,1.39
1764746522.4394,1.37
1764746522.445643,1.46
1764746522.451808,1.63
1764746522.458207,1.79
1764746522.464423,1.76
1764746522.4706008,1.74
1764746522.4769092,1.74
1764746522.483074,1.65
1764746522.489364,1.74
1764746522.495723,1.92
1764746522.501725,2.58
1764746522.50804,3.16
1764746522.514244,3.17
1764746522.5205472,3.11
1764746522.526862,2.07
1764746522.5329669,1.79
