timestamp,ecg_value
1762880094.008472,1.49
1762880094.014512,1.5
1762880094.020858,1.51
1762880094.026931,1.51
1762880094.03314,1.49
1762880094.039434,1.47
1762880094.045673,1.45
1762880094.051857,1.45
1762880094.058319,1.47
1762880094.0643358,1.5
1762880094.070605,1.53
1762880094.07687,1.55
1762880094.083649,1.54
1762880094.0893922,1.52
1762880094.095716,1.48
1762880094.1019058,1.46
1762880094.1081889,1.46
1762880094.114369,1.56
1762880094.120822,1.54
1762880094.126945,1.57
1762880094.133184,1.64
1762880094.139349,1.62
1762880094.1456141,1.73
1762880094.151777,1.73
1762880094.158062,1.62
1762880094.164703,1.64
1762880094.170605,1.65
1762880094.176811,1.63
1762880094.1830919,1.52
1762880094.189308,1.39
1762880094.195998,1.52
1762880094.201771,1.52
1762880094.208025,1.37
1762880094.2143,1.45
1762880094.2205539,1.45
1762880094.2267919,1.47
1762880094.233071,1.48
1762880094.239284,1.38
1762880094.2455978,1.46
1762880094.2519958,1.51
1762880094.258114,1.45
1762880094.264302,1.5
1762880094.270612,1.48
1762880094.276924,1.49
1762880094.28311,1.54
1762880094.2894669,1.48
1762880094.2960472,1.5
1762880094.3018408,1.59
1762880094.308157,1.67
1762880094.31466,1.96
1762880094.320825,2.64
1762880094.326859,3.17
1762880094.333062,3.17
1762880094.339318,3.17
1762880094.345644,2.63
1762880094.351707,0.81
1762880094.358083,1.12
1762880094.364321,1.89
1762880094.3705869,1.53
1762880094.37681,1.27
1762880094.3830342,1.45
1762880094.3894122,1.5
1762880094.395825,1.48
1762880094.401813,1.44
1762880094.4079502,1.44
1762880094.414279,1.51
1762880094.4204748,1.47
1762880094.426785,1.49
1762880094.433002,1.52
1762880094.439264,1.49
1762880094.445743,1.54
1762880094.4518578,1.54
1762880094.4579961,1.52
1762880094.464329,1.56
1762880094.470504,1.54
1762880094.476844,1.53
1762880094.483069,1.58
1762880094.4892402,1.59
1762880094.495667,1.64
1762880094.501778,1.63
1762880094.508054,1.6
1762880094.5708601,1.68
1762880094.572341,1.68
1762880094.577607,1.69
1762880094.580163,1.75
1762880094.580236,1.77
1762880094.58029,1.81
1762880094.580342,1.8
1762880094.5805922,1.82
1762880094.580657,1.91
1762880094.5833228,1.8
1762880094.583623,1.84
1762880094.58381,1.93
1762880094.5892422,1.84
1762880094.5955698,1.77
1762880094.601724,1.71
1762880094.608055,1.71
1762880094.614301,1.72
1762880094.620499,1.58
1762880094.626753,1.51
1762880094.63296,1.52
1762880094.6392162,1.46
1762880094.645509,1.49
1762880094.651693,1.47
1762880094.657964,1.4
1762880094.664278,1.45
1762880094.670466,1.41
1762880094.6768441,1.4
1762880094.682949,1.46
1762880094.689379,1.42
1762880094.695582,1.45
1762880094.701715,1.46
1762880094.708111,1.42
1762880094.714307,1.46
1762880094.7204669,1.46
1762880094.7272131,1.44
1762880094.7333739,1.53
1762880094.7392561,1.51
1762880094.7454789,1.49
1762880094.751751,1.52
1762880094.758066,1.47
1762880094.764386,1.53
1762880094.770504,1.52
1762880094.776757,1.51
1762880094.783028,1.53
1762880094.789171,1.45
1762880094.795543,1.52
1762880094.801701,1.53
1762880094.807882,1.46
1762880094.814164,1.51
1762880094.820483,1.5
1762880094.82675,1.52
1762880094.832989,1.56
1762880094.839307,1.49
1762880094.84543,1.47
1762880094.851648,1.5
1762880094.8579168,1.5
1762880094.8644822,1.55
1762880094.870446,1.5
1762880094.877386,1.49
1762880094.882997,1.53
1762880094.8894029,1.47
1762880094.895521,1.51
1762880094.901963,1.54
1762880094.908177,1.49
1762880094.914206,1.52
1762880094.920558,1.53
1762880094.926752,1.55
1762880094.932987,1.62
1762880094.93924,1.61
1762880094.9454348,1.65
1762880094.951774,1.73
1762880094.957976,1.74
1762880094.96418,1.74
1762880094.970444,1.59
1762880094.977182,1.65
1762880094.982921,1.71
1762880094.989176,1.51
1762880094.995483,1.47
1762880095.001578,1.54
1762880095.007963,1.44
1762880095.0141718,1.48
1762880095.0204659,1.49
1762880095.0266361,1.49
1762880095.0328581,1.5
1762880095.039238,1.41
1762880095.045331,1.48
1762880095.05185,1.52
1762880095.058101,1.48
1762880095.064275,1.48
1762880095.0704079,1.45
1762880095.07676,1.49
1762880095.083053,1.57
1762880095.08924,1.5
1762880095.095465,1.56
1762880095.101662,1.56
1762880095.108026,1.5
1762880095.114177,1.74
1762880095.1205099,2.04
1762880095.127038,2.72
1762880095.132875,3.17
1762880095.139192,3.17
1762880095.145389,3.17
1762880095.151642,2.8
1762880095.157883,0.99
1762880095.164078,1.15
1762880095.170324,1.77
1762880095.1768808,1.59
1762880095.182785,1.36
1762880095.189184,1.37
1762880095.195477,1.54
1762880095.20167,1.52
1762880095.20786,1.42
1762880095.214058,1.48
1762880095.220385,1.46
1762880095.226659,1.49
1762880095.2329018,1.52
1762880095.239167,1.46
1762880095.2453399,1.52
1762880095.251648,1.54
1762880095.258085,1.49
1762880095.264124,1.54
1762880095.270348,1.52
1762880095.2767591,1.56
1762880095.282769,1.61
1762880095.289065,1.54
1762880095.295394,1.58
1762880095.301593,1.65
1762880095.307858,1.61
1762880095.314154,1.66
1762880095.320569,1.63
1762880095.32659,1.66
1762880095.332889,1.75
1762880095.339116,1.72
1762880095.34548,1.78
1762880095.3514938,1.83
1762880095.358073,1.79
1762880095.364068,1.86
1762880095.370274,1.82
1762880095.37652,1.78
1762880095.382752,1.91
1762880095.389042,1.87
1762880095.3953311,1.84
1762880095.40167,1.78
1762880095.407868,1.7
1762880095.414017,1.78
1762880095.420272,1.66
1762880095.4267032,1.55
1762880095.4327629,1.54
1762880095.439111,1.48
1762880095.445344,1.48
1762880095.4515781,1.48
1762880095.457898,1.42
1762880095.464084,1.47
1762880095.470268,1.42
1762880095.476543,1.43
1762880095.482861,1.49
1762880095.4889731,1.42
1762880095.495391,1.45
1762880095.5016818,1.45
1762880095.507822,1.38
1762880095.51404,1.49
1762880095.520336,1.48
1762880095.5266109,1.44
1762880095.532745,1.51
1762880095.539069,1.45
1762880095.545333,1.48
1762880095.551562,1.52
1762880095.558037,1.48
1762880095.56401,1.52
1762880095.570427,1.5
1762880095.5764842,1.48
1762880095.582962,1.52
1762880095.589088,1.49
1762880095.595297,1.55
1762880095.601515,1.53
1762880095.607923,1.46
1762880095.6140301,1.52
1762880095.620427,1.51
1762880095.62654,1.49
1762880095.632769,1.5
1762880095.639084,1.48
1762880095.645321,1.51
1762880095.651739,1.51
1762880095.657975,1.47
1762880095.664086,1.51
1762880095.670491,1.47
1762880095.67655,1.49
1762880095.682903,1.54
1762880095.689068,1.48
1762880095.695432,1.52
1762880095.701557,1.55
1762880095.7076962,1.56
1762880095.713872,1.65
1762880095.7202501,1.61
1762880095.726888,1.68
1762880095.7327812,1.8
1762880095.739019,1.67
1762880095.745383,1.6
1762880095.751443,1.71
1762880095.757859,1.63
1762880095.76403,1.52
1762880095.770221,1.44
1762880095.776563,1.46
1762880095.7827368,1.51
1762880095.789144,1.38
1762880095.795244,1.42
1762880095.801664,1.52
1762880095.807828,1.44
1762880095.8141649,1.42
1762880095.8205051,1.47
1762880095.826647,1.46
1762880095.83289,1.49
1762880095.838942,1.43
1762880095.8452249,1.47
1762880095.851563,1.5
1762880095.857753,1.44
1762880095.864053,1.53
1762880095.87694,1.52
1762880095.877127,1.47
1762880095.893922,1.54
1762880095.895343,1.62
1762880095.8957188,1.91
1762880095.920633,2.55
1762880095.93546,3.16
1762880095.935904,3.17
1762880095.9359932,3.17
1762880095.9360561,3.04
1762880095.936131,1.18
1762880095.938904,0.85
1762880095.9484081,1.75
1762880095.951552,1.71
1762880095.9585679,1.32
1762880095.963967,1.43
1762880095.9703271,1.49
1762880095.977074,1.42
1762880095.982734,1.45
1762880095.988977,1.42
1762880095.9952278,1.49
1762880096.001483,1.49
1762880096.007728,1.46
1762880096.013927,1.52
1762880096.020267,1.5
1762880096.026722,1.48
1762880096.032741,1.53
1762880096.0388858,1.47
1762880096.045238,1.52
1762880096.051394,1.6
1762880096.05774,1.53
1762880096.0639172,1.56
1762880096.070215,1.56
1762880096.076534,1.56
1762880096.0828469,1.64
1762880096.088875,1.62
1762880096.09532,1.64
1762880096.101433,1.72
1762880096.107739,1.68
1762880096.113976,1.74
1762880096.120455,1.75
1762880096.1264691,1.75
1762880096.132736,1.84
1762880096.139018,1.83
1762880096.145161,1.84
1762880096.1514308,1.86
1762880096.15764,1.79
1762880096.1640189,1.86
1762880096.170176,1.84
1762880096.17636,1.76
1762880096.182698,1.77
1762880096.188994,1.68
1762880096.195203,1.64
1762880096.201397,1.55
1762880096.207645,1.45
1762880096.213886,1.49
1762880096.220267,1.49
1762880096.2265751,1.46
1762880096.232765,1.43
1762880096.238889,1.38
1762880096.2451751,1.44
1762880096.2515042,1.47
1762880096.2577431,1.41
1762880096.263851,1.42
1762880096.2700858,1.37
1762880096.2766342,1.4
1762880096.282748,1.52
1762880096.2889202,1.43
1762880096.295053,1.42
1762880096.301365,1.45
1762880096.3076348,1.46
1762880096.313854,1.52
1762880096.32013,1.49
1762880096.326506,1.4
1762880096.332671,1.5
1762880096.339027,1.52
1762880096.3451781,1.52
1762880096.351337,1.49
1762880096.357753,1.45
1762880096.363942,1.54
1762880096.370378,1.49
1762880096.376446,1.44
1762880096.3827221,1.56
1762880096.388952,1.51
1762880096.3951612,1.5
1762880096.401335,1.51
1762880096.407658,1.43
1762880096.4138129,1.51
1762880096.420199,1.53
1762880096.4264698,1.49
1762880096.432686,1.5
1762880096.4388402,1.41
1762880096.445073,1.49
1762880096.451363,1.56
1762880096.4575832,1.47
1762880096.4638772,1.51
1762880096.47008,1.52
1762880096.4763892,1.49
1762880096.4828281,1.53
1762880096.4888551,1.46
1762880096.495127,1.5
1762880096.5012748,1.54
1762880096.507606,1.46
1762880096.513916,1.56
1762880096.520063,1.66
1762880096.5263228,1.62
1762880096.532757,1.6
1762880096.539027,1.67
1762880096.545088,1.79
1762880096.5513742,1.74
1762880096.557636,1.61
1762880096.563929,1.72
1762880096.570102,1.7
1762880096.576353,1.52
1762880096.5826838,1.49
1762880096.588812,1.45
1762880096.595069,1.49
1762880096.601294,1.51
1762880096.6075342,1.45
1762880096.613804,1.49
1762880096.620126,1.44
1762880096.626538,1.46
1762880096.632589,1.53
1762880096.6388748,1.45
1762880096.645122,1.46
1762880096.651478,1.52
1762880096.657701,1.48
1762880096.663813,1.5
1762880096.6701922,1.5
1762880096.676469,1.51
1762880096.682615,1.56
1762880096.688849,1.52
1762880096.695219,1.55
1762880096.701497,1.7
1762880096.707632,1.94
1762880096.713851,2.63
1762880096.720006,3.16
1762880096.726825,3.17
1762880096.732599,3.17
1762880096.738938,2.88
1762880096.745049,1.0
1762880096.751256,1.04
1762880096.757555,1.79
1762880096.763783,1.66
1762880096.77012,1.34
1762880096.776572,1.44
1762880096.782611,1.56
1762880096.7888901,1.45
1762880096.794932,1.44
1762880096.8012888,1.52
1762880096.8075578,1.47
1762880096.813706,1.49
1762880096.8200068,1.48
1762880096.8263118,1.46
1762880096.832675,1.52
1762880096.83884,1.5
1762880096.845037,1.55
1762880096.8514051,1.58
1762880096.857606,1.56
1762880096.863915,1.6
1762880096.870325,1.58
1762880096.876344,1.53
1762880096.8827531,1.62
1762880096.888831,1.61
1762880096.895019,1.63
1762880096.90131,1.66
1762880096.907518,1.63
1762880096.913755,1.72
1762880096.919997,1.74
1762880096.926348,1.69
1762880096.9325042,1.79
1762880096.938703,1.77
1762880096.944948,1.83
1762880096.951282,1.87
1762880096.9575198,1.78
1762880096.963753,1.85
1762880096.970011,1.89
1762880096.976287,1.86
1762880096.982498,1.89
1762880096.988704,1.79
1762880096.994925,1.76
1762880097.001187,1.74
1762880097.007456,1.62
1762880097.01369,1.65
1762880097.0200489,1.56
1762880097.026387,1.47
1762880097.032532,1.51
1762880097.03878,1.46
1762880097.044998,1.48
1762880097.0514922,1.49
1762880097.057481,1.41
1762880097.063699,1.44
1762880097.070049,1.46
1762880097.076601,1.44
1762880097.08243,1.5
1762880097.088806,1.46
1762880097.094909,1.44
1762880097.101233,1.48
1762880097.107541,1.44
1762880097.1136608,1.48
1762880097.119927,1.5
1762880097.1263082,1.48
1762880097.1324532,1.55
1762880097.1386409,1.5
1762880097.144904,1.5
1762880097.151273,1.55
1762880097.157758,1.49
1762880097.163598,1.52
1762880097.169923,1.52
1762880097.17628,1.51
1762880097.1824472,1.56
1762880097.188637,1.49
1762880097.1948822,1.49
1762880097.201159,1.57
1762880097.207514,1.52
1762880097.213671,1.5
1762880097.219926,1.48
1762880097.226217,1.52
1762880097.23255,1.54
1762880097.2386281,1.46
1762880097.244902,1.51
1762880097.251128,1.57
1762880097.257445,1.47
1762880097.2636569,1.52
1762880097.2700422,1.53
1762880097.27629,1.51
1762880097.2917829,1.54
1762880097.295885,1.48
1762880097.296061,1.51
1762880097.31248,1.61
1762880097.3126552,1.59
1762880097.3285482,1.65
1762880097.334347,1.66
1762880097.334649,1.68
1762880097.3347158,1.76
1762880097.339801,1.72
1762880097.3450198,1.68
1762880097.351257,1.73
1762880097.357426,1.59
1762880097.36384,1.53
1762880097.369879,1.52
1762880097.376192,1.46
1762880097.382528,1.45
1762880097.388715,1.44
1762880097.39489,1.5
1762880097.401255,1.5
1762880097.407561,1.42
1762880097.4135969,1.49
1762880097.419879,1.46
1762880097.426181,1.46
1762880097.432406,1.52
1762880097.438624,1.46
1762880097.444809,1.5
1762880097.451148,1.52
1762880097.45772,1.46
1762880097.463597,1.56
1762880097.478951,1.55
1762880097.479131,1.48
1762880097.537416,1.59
1762880097.5437381,1.68
1762880097.5500429,1.95
1762880097.5624151,2.71
1762880097.570128,3.16
1762880097.5703769,3.17
1762880097.5810719,3.17
1762880097.5814521,2.89
1762880097.581711,1.08
1762880097.5819268,0.99
1762880097.582109,1.78
1762880097.582509,1.7
1762880097.5827441,1.3
1762880097.582877,1.43
1762880097.5830028,1.52
1762880097.5831292,1.43
1762880097.5844219,1.47
1762880097.589088,1.48
1762880097.5949252,1.49
1762880097.601133,1.49
1762880097.607996,1.45
1762880097.616062,1.52
1762880097.61977,1.51
1762880097.626167,1.47
1762880097.632532,1.56
1762880097.638597,1.53
1762880097.6448169,1.53
1762880097.651114,1.57
1762880097.657367,1.53
1762880097.663635,1.58
1762880097.669779,1.6
1762880097.676126,1.61
1762880097.682393,1.65
1762880097.688573,1.61
1762880097.6947699,1.65
1762880097.7011049,1.71
1762880097.707475,1.66
1762880097.7136052,1.7
1762880097.719979,1.76
1762880097.726335,1.79
1762880097.732298,1.82
1762880097.738601,1.75
1762880097.744786,1.8
1762880097.7512069,1.83
1762880097.7575638,1.83
1762880097.7635462,1.86
1762880097.7698119,1.83
1762880097.776093,1.75
1762880097.782253,1.74
1762880097.788728,1.69
1762880097.794744,1.66
1762880097.801067,1.59
1762880097.807459,1.48
1762880097.813576,1.53
1762880097.819864,1.49
1762880097.826117,1.42
1762880097.832275,1.48
1762880097.838621,1.45
1762880097.844789,1.45
1762880097.8510232,1.47
1762880097.857343,1.4
1762880097.863521,1.46
1762880097.869824,1.44
1762880097.8761501,1.38
1762880097.882359,1.49
1762880097.888712,1.49
1762880097.894785,1.49
1762880097.901075,1.5
1762880097.907546,1.46
1762880097.913562,1.52
1762880097.920116,1.48
1762880097.9261382,1.44
1762880097.932377,1.56
1762880097.938665,1.52
1762880097.944747,1.48
1762880097.9510558,1.51
1762880097.9574132,1.46
1762880097.9636312,1.52
1762880097.969861,1.53
1762880097.97605,1.49
1762880097.9823601,1.54
1762880097.988768,1.51
1762880097.994743,1.49
1762880098.001044,1.48
1762880098.00745,1.45
1762880098.01357,1.56
1762880098.019899,1.53
1762880098.026048,1.45
1762880098.0322611,1.51
1762880098.038595,1.48
1762880098.044767,1.5
1762880098.051038,1.54
1762880098.0573409,1.46
1762880098.063644,1.5
1762880098.069773,1.51
1762880098.076295,1.47
1762880098.082304,1.54
1762880098.088466,1.6
1762880098.0947452,1.62
1762880098.1011682,1.64
1762880098.107297,1.62
1762880098.113578,1.77
1762880098.119843,1.78
1762880098.126084,1.64
1762880098.132299,1.7
1762880098.138577,1.68
1762880098.1447759,1.54
1762880098.151006,1.52
1762880098.15825,1.45
1762880098.16365,1.45
1762880098.16976,1.46
1762880098.175998,1.44
1762880098.182234,1.49
1762880098.1885078,1.48
1762880098.19464,1.46
1762880098.201039,1.44
1762880098.2072299,1.42
1762880098.213521,1.51
1762880098.219722,1.48
1762880098.226057,1.41
1762880098.2322,1.51
1762880098.238463,1.5
1762880098.244766,1.45
1762880098.250991,1.51
1762880098.2573178,1.51
1762880098.263824,1.51
1762880098.269755,1.58
1762880098.2765682,1.76
1762880098.282323,2.2
1762880098.2884648,3.0
1762880098.294681,3.17
1762880098.301106,3.17
1762880098.307287,3.16
1762880098.313518,2.03
1762880098.3198469,0.69
1762880098.326093,1.41
1762880098.332257,1.91
1762880098.338594,1.45
1762880098.344675,1.29
1762880098.351052,1.53
1762880098.357677,1.44
1762880098.363415,1.38
1762880098.369644,1.49
1762880098.376011,1.48
1762880098.382197,1.48
1762880098.38843,1.46
1762880098.394683,1.48
1762880098.400942,1.5
1762880098.4072871,1.47
1762880098.413485,1.54
1762880098.419706,1.52
1762880098.425958,1.49
1762880098.43221,1.6
1762880098.438588,1.55
1762880098.4446678,1.52
1762880098.45096,1.58
1762880098.457283,1.59
1762880098.463377,1.61
1762880098.4696782,1.62
1762880098.47595,1.63
1762880098.482205,1.71
1762880098.488543,1.68
1762880098.494661,1.71
1762880098.500929,1.74
1762880098.507657,1.73
1762880098.51341,1.83
1762880098.519657,1.78
1762880098.52592,1.7
1762880098.5322208,1.84
1762880098.538862,1.85
1762880098.544578,1.83
1762880098.550879,1.86
1762880098.557237,1.78
1762880098.563731,1.78
1762880098.569653,1.75
1762880098.575947,1.63
1762880098.5821939,1.63
1762880098.588392,1.57
1762880098.594591,1.51
1762880098.6008909,1.53
1762880098.607278,1.43
1762880098.61339,1.41
1762880098.619614,1.44
1762880098.625931,1.42
1762880098.6321752,1.47
1762880098.638397,1.42
1762880098.644625,1.43
1762880098.6509068,1.47
1762880098.657144,1.39
1762880098.663418,1.48
1762880098.669646,1.51
1762880098.6759412,1.43
1762880098.682205,1.47
1762880098.6883898,1.47
1762880098.6946602,1.46
1762880098.7009401,1.48
1762880098.707259,1.43
1762880098.713392,1.52
1762880098.719687,1.51
1762880098.725954,1.43
1762880098.73213,1.53
1762880098.738393,1.47
1762880098.744601,1.46
1762880098.750911,1.53
1762880098.766415,1.47
1762880098.778649,1.5
1762880098.778935,1.52
1762880098.795349,1.43
1762880098.829196,1.52
1762880098.829443,1.49
1762880098.8296928,1.45
1762880098.82992,1.51
1762880098.830048,1.47
1762880098.830167,1.52
1762880098.830316,1.49
1762880098.8304489,1.45
1762880098.8321779,1.52
1762880098.838871,1.43
1762880098.8446138,1.45
1762880098.850882,1.62
1762880098.857135,1.58
1762880098.8634062,1.58
1762880098.869926,1.62
1762880098.875912,1.64
1762880098.882159,1.77
1762880098.8884668,1.74
1762880098.894586,1.65
1762880098.900794,1.65
1762880098.907417,1.6
1762880098.913281,1.56
1762880098.919611,1.5
1762880098.925925,1.4
1762880098.932134,1.43
1762880098.938338,1.42
1762880098.944559,1.39
1762880098.950837,1.44
1762880098.957144,1.44
1762880098.9633029,1.43
1762880098.969586,1.44
1762880098.975917,1.41
1762880098.982021,1.48
1762880098.988296,1.45
1762880098.9945421,1.4
1762880099.000814,1.47
1762880099.007146,1.47
1762880099.013312,1.5
1762880099.0195682,1.48
1762880099.025836,1.41
1762880099.0320451,1.54
1762880099.038341,1.63
1762880099.04455,1.88
1762880099.0507789,2.7
1762880099.057298,3.16
1762880099.063339,3.17
1762880099.06962,3.17
1762880099.0758111,2.31
1762880099.082051,0.74
1762880099.088321,1.23
1762880099.094749,1.8
1762880099.1007628,1.55
1762880099.107254,1.28
1762880099.113308,1.41
1762880099.119595,1.47
1762880099.125757,1.39
1762880099.132002,1.46
1762880099.1384268,1.45
1762880099.144564,1.42
1762880099.150757,1.49
1762880099.15711,1.45
1762880099.1633222,1.46
1762880099.169479,1.49
1762880099.176069,1.45
1762880099.182226,1.52
1762880099.1881988,1.52
1762880099.19454,1.5
1762880099.200754,1.55
1762880099.207121,1.49
1762880099.213324,1.52
1762880099.219538,1.61
1762880099.225852,1.56
1762880099.232061,1.6
1762880099.2382479,1.59
1762880099.2445178,1.6
1762880099.2508311,1.7
1762880099.2570932,1.71
1762880099.263227,1.73
1762880099.269554,1.74
1762880099.276473,1.74
1762880099.282101,1.8
1762880099.288299,1.78
1762880099.294492,1.77
1762880099.30086,1.83
1762880099.3071191,1.8
1762880099.3132281,1.82
1762880099.319498,1.8
1762880099.326101,1.73
1762880099.3320398,1.76
1762880099.338262,1.67
1762880099.344522,1.57
1762880099.350708,1.61
1762880099.357049,1.53
1762880099.363264,1.5
1762880099.3695061,1.46
1762880099.3758368,1.44
1762880099.382059,1.46
1762880099.388309,1.44
1762880099.3944929,1.42
1762880099.4007711,1.47
1762880099.406991,1.38
1762880099.413258,1.43
1762880099.4194381,1.48
1762880099.4257832,1.42
1762880099.431999,1.46
1762880099.438195,1.46
1762880099.444515,1.48
1762880099.450877,1.53
1762880099.457144,1.45
1762880099.463218,1.5
1762880099.469528,1.52
1762880099.475828,1.44
1762880099.481961,1.48
1762880099.488307,1.51
1762880099.4945002,1.52
1762880099.5007842,1.54
1762880099.5071528,1.47
1762880099.5131788,1.52
1762880099.5195541,1.52
1762880099.525783,1.49
1762880099.5320141,1.52
1762880099.538209,1.52
1762880099.54444,1.49
1762880099.5507462,1.51
1762880099.557055,1.48
1762880099.563147,1.54
1762880099.569542,1.59
1762880099.576384,1.62
1762880099.581986,1.64
1762880099.588211,1.58
1762880099.594452,1.72
1762880099.600787,1.79
1762880099.607064,1.66
1762880099.613187,1.7
1762880099.61978,1.74
1762880099.6257868,1.59
1762880099.6320581,1.46
1762880099.6383722,1.47
1762880099.644393,1.5
1762880099.650547,1.47
1762880099.6575282,1.37
1762880099.6632068,1.45
1762880099.669533,1.48
1762880099.6756852,1.41
1762880099.681998,1.44
1762880099.688185,1.44
1762880099.694537,1.43
1762880099.7006478,1.47
1762880099.7069619,1.44
1762880099.71321,1.46
1762880099.71946,1.47
1762880099.7258408,1.43
1762880099.731901,1.53
1762880099.7381918,1.51
1762880099.7443929,1.42
1762880099.750701,1.56
1762880099.757015,1.73
1762880099.763222,2.11
1762880099.769452,2.98
1762880099.7759979,3.17
1762880099.782111,3.17
1762880099.7881448,3.15
1762880099.794421,1.59
1762880099.8007412,0.7
1762880099.806997,1.56
1762880099.813209,1.82
1762880099.819755,1.44
1762880099.825761,1.33
1762880099.831936,1.5
1762880099.838128,1.48
1762880099.844424,1.43
1762880099.8506072,1.48
1762880099.85697,1.44
1762880099.86324,1.47
1762880099.8696709,1.47
1762880099.875699,1.44
1762880099.881909,1.53
1762880099.888195,1.52
1762880099.894399,1.49
1762880099.900636,1.51
1762880099.907326,1.5
1762880099.91311,1.57
1762880099.919491,1.61
1762880099.9258182,1.53
1762880099.931943,1.59
1762880099.938248,1.64
1762880099.944392,1.62
1762880099.950651,1.66
1762880099.956992,1.63
1762880099.963139,1.65
1762880099.969429,1.69
1762880099.975667,1.69
1762880099.9821749,1.8
1762880099.989152,1.77
1762880099.994404,1.74
1762880100.000635,1.8
1762880100.007042,1.79
1762880100.01322,1.83
1762880100.0193658,1.87
1762880100.025758,1.8
1762880100.032007,1.8
1762880100.038883,1.78
1762880100.044387,1.75
1762880100.050623,1.74
1762880100.056973,1.6
1762880100.063257,1.59
1762880100.069418,1.6
1762880100.075663,1.5
1762880100.081972,1.51
1762880100.088196,1.49
1762880100.094346,1.45
1762880100.100589,1.49
1762880100.1069992,1.45
1762880100.1131022,1.41
1762880100.119526,1.45
1762880100.125598,1.48
1762880100.131872,1.51
1762880100.138165,1.48
1762880100.1443489,1.46
1762880100.15065,1.51
1762880100.16875,1.45
1762880100.1689448,1.49
1762880100.176524,1.56
1762880100.19415,1.51
1762880100.203341,1.52
1762880100.203501,1.49
1762880100.211552,1.51
1762880100.213654,1.57
1762880100.2137878,1.54
1762880100.213862,1.53
1762880100.22118,1.54
1762880100.225514,1.52
1762880100.231977,1.54
1762880100.238168,1.54
1762880100.244354,1.61
1762880100.250558,1.69
1762880100.256883,1.59
1762880100.263179,1.65
1762880100.269401,1.79
1762880100.2756832,1.76
1762880100.281903,1.72
1762880100.2881532,1.64
1762880100.294354,1.66
1762880100.3006668,1.64
1762880100.307029,1.48
1762880100.31309,1.47
1762880100.3193338,1.51
1762880100.3255942,1.43
1762880100.331987,1.46
1762880100.339051,1.46
1762880100.3443232,1.44
1762880100.350524,1.48
1762880100.3568919,1.44
1762880100.363096,1.46
1762880100.369356,1.46
1762880100.375623,1.39
1762880100.3818529,1.5
1762880100.3880372,1.53
1762880100.394311,1.47
1762880100.400521,1.52
1762880100.4067929,1.51
1762880100.413026,1.49
1762880100.419243,1.52
1762880100.4254951,1.57
1762880100.43177,1.68
1762880100.438051,1.92
1762880100.4442198,2.7
1762880100.450531,3.17
1762880100.456885,3.17
1762880100.463607,3.17
1762880100.469384,2.65
1762880100.475491,0.84
1762880100.48175,1.19
1762880100.4880488,1.8
1762880100.494349,1.55
1762880100.5006678,1.37
1762880100.506801,1.45
1762880100.5130749,1.5
1762880100.519243,1.46
1762880100.5256078,1.46
1762880100.531777,1.54
1762880100.538222,1.49
1762880100.544297,1.46
1762880100.550472,1.55
1762880100.556829,1.51
1762880100.563301,1.49
1762880100.5694258,1.53
1762880100.575537,1.53
1762880100.5816472,1.58
1762880100.5881119,1.54
1762880100.5945349,1.52
1762880100.600638,1.61
1762880100.607051,1.59
1762880100.6131,1.56
1762880100.619597,1.61
1762880100.6254342,1.63
1762880100.631787,1.68
1762880100.638078,1.66
1762880100.644338,1.69
1762880100.6505442,1.74
1762880100.656756,1.7
1762880100.6630442,1.77
1762880100.669677,1.82
1762880100.675555,1.74
1762880100.6819358,1.82
1762880100.688051,1.81
1762880100.694334,1.81
1762880100.700597,1.87
1762880100.7067788,1.79
1762880100.713106,1.77
1762880100.719278,1.74
1762880100.7257018,1.67
1762880100.7317288,1.66
1762880100.738018,1.59
1762880100.744253,1.53
1762880100.750539,1.57
1762880100.756723,1.48
1762880100.762968,1.48
1762880100.7695749,1.51
1762880100.7756538,1.44
1762880100.781853,1.49
1762880100.788054,1.49
1762880100.794445,1.45
1762880100.800583,1.47
1762880100.806772,1.44
1762880100.8130019,1.47
1762880100.819243,1.49
1762880100.825404,1.44
1762880100.831684,1.51
1762880100.8384159,1.52
1762880100.844196,1.48
1762880100.8505752,1.52
1762880100.8568408,1.48
1762880100.862991,1.52
1762880100.8692632,1.56
1762880100.875558,1.48
1762880100.881782,1.55
1762880100.888264,1.54
1762880100.894254,1.54
1762880100.900579,1.65
1762880100.9067671,1.61
1762880100.913014,1.57
1762880100.919198,1.67
1762880100.925452,1.71
1762880100.931612,1.74
1762880100.938046,1.72
1762880100.944326,1.63
1762880100.950593,1.69
1762880100.9568052,1.6
1762880100.9629068,1.47
1762880100.969287,1.47
1762880100.975456,1.46
1762880100.981623,1.43
1762880100.988451,1.39
1762880100.994344,1.43
1762880101.000392,1.47
1762880101.0068312,1.42
1762880101.0129752,1.43
1762880101.0193338,1.41
1762880101.025579,1.4
1762880101.0317252,1.51
1762880101.037935,1.49
1762880101.04423,1.39
1762880101.050453,1.43
1762880101.056737,1.46
1762880101.062953,1.49
1762880101.06922,1.47
1762880101.075572,1.45
1762880101.081766,1.54
1762880101.0884218,1.56
1762880101.0942411,1.66
1762880101.100512,2.16
1762880101.106838,3.02
1762880101.112905,3.17
1762880101.1191318,3.17
1762880101.1254458,3.16
1762880101.1317601,1.96
1762880101.137963,0.71
1762880101.144154,1.42
1762880101.1502998,1.84
1762880101.156599,1.42
1762880101.1629388,1.3
1762880101.169276,1.48
1762880101.175394,1.44
1762880101.1816902,1.42
1762880101.1886778,1.41
1762880101.194255,1.41
1762880101.200402,1.49
1762880101.206812,1.44
1762880101.2132301,1.44
1762880101.219358,1.48
1762880101.2254238,1.44
1762880101.232081,1.5
1762880101.238981,1.5
1762880101.2442791,1.48
1762880101.25041,1.53
1762880101.256789,1.53
1762880101.263024,1.55
1762880101.269023,1.55
1762880101.275337,1.49
1762880101.281545,1.63
1762880101.287829,1.67
1762880101.294131,1.59
1762880101.300249,1.67
1762880101.3065841,1.69
1762880101.3128278,1.67
1762880101.319116,1.72
1762880101.325372,1.69
1762880101.331936,1.76
1762880101.337831,1.76
1762880101.344531,1.73
1762880101.350271,1.78
1762880101.356593,1.73
1762880101.363091,1.74
1762880101.369091,1.79
1762880101.375438,1.71
1762880101.3815901,1.71
1762880101.388142,1.65
1762880101.3941498,1.57
1762880101.400286,1.52
1762880101.406658,1.47
1762880101.413175,1.5
1762880101.4190662,1.48
1762880101.425439,1.42
1762880101.431722,1.47
1762880101.437883,1.42
1762880101.444104,1.39
1762880101.450308,1.47
1762880101.456584,1.45
1762880101.462938,1.44
1762880101.469103,1.46
1762880101.475329,1.39
1762880101.4816241,1.47
1762880101.4879959,1.5
1762880101.494109,1.47
1762880101.5003111,1.49
1762880101.506581,1.49
1762880101.512856,1.51
1762880101.519027,1.51
1762880101.525482,1.46
1762880101.531562,1.5
1762880101.537917,1.52
1762880101.54413,1.51
1762880101.550525,1.54
1762880101.564642,1.5
1762880101.5667279,1.5
1762880101.5935922,1.59
1762880101.59374,1.59
1762880101.593845,1.63
1762880101.627058,1.6
1762880101.627399,1.67
1762880101.627697,1.81
1762880101.627983,1.69
1762880101.6284769,1.59
1762880101.628701,1.67
1762880101.628866,1.62
1762880101.633025,1.51
1762880101.637975,1.42
1762880101.647449,1.41
1762880101.651545,1.46
1762880101.656697,1.39
1762880101.6628978,1.41
1762880101.6691241,1.45
1762880101.675387,1.37
1762880101.68156,1.44
1762880101.687945,1.47
1762880101.694124,1.39
1762880101.700277,1.4
1762880101.706558,1.43
1762880101.712877,1.48
1762880101.7191732,1.5
1762880101.7253382,1.39
1762880101.73165,1.44
1762880101.7379498,1.51
1762880101.744203,1.5
1762880101.750338,1.47
1762880101.756944,1.43
1762880101.762832,1.58
1762880101.769121,1.77
1762880101.775313,2.22
1762880101.781583,3.15
1762880101.7878242,3.17
1762880101.793988,3.17
1762880101.800249,3.15
1762880101.80652,1.5
1762880101.812843,0.7
1762880101.8190012,1.62
1762880101.8253021,1.73
1762880101.831512,1.36
1762880101.837733,1.33
1762880101.8439748,1.43
1762880101.8502898,1.48
1762880101.856521,1.37
1762880101.862752,1.41
1762880101.869072,1.46
1762880101.875285,1.37
1762880101.8815901,1.45
1762880101.887908,1.49
1762880101.893992,1.43
1762880101.90034,1.49
1762880101.906454,1.5
1762880101.9127622,1.49
1762880101.919094,1.51
1762880101.9253829,1.5
1762880101.931519,1.55
1762880101.937902,1.53
1762880101.943995,1.54
1762880101.950297,1.6
1762880101.956518,1.56
1762880101.9627771,1.6
1762880101.968999,1.64
1762880101.97532,1.58
1762880101.981498,1.72
1762880101.987823,1.74
1762880101.993975,1.67
1762880102.000271,1.72
1762880102.006457,1.76
1762880102.012715,1.77
1762880102.019068,1.79
1762880102.025245,1.75
1762880102.031498,1.81
1762880102.0378802,1.83
1762880102.043961,1.74
1762880102.0501812,1.74
1762880102.0564501,1.68
1762880102.062739,1.64
1762880102.0691211,1.63
1762880102.0753422,1.53
1762880102.0815842,1.49
1762880102.0878909,1.46
1762880102.094002,1.43
1762880102.1002471,1.47
1762880102.106452,1.43
1762880102.112739,1.38
1762880102.1191502,1.44
1762880102.125288,1.4
1762880102.13149,1.45
1762880102.1377559,1.48
1762880102.143918,1.43
1762880102.150225,1.45
1762880102.156543,1.38
1762880102.163202,1.46
1762880102.169203,1.56
1762880102.175384,1.49
1762880102.181452,1.49
1762880102.1877198,1.51
1762880102.193932,1.49
1762880102.20016,1.52
1762880102.206466,1.47
1762880102.212694,1.5
1762880102.2189891,1.55
1762880102.225193,1.48
1762880102.231416,1.5
1762880102.2376919,1.51
1762880102.243904,1.5
1762880102.250259,1.55
1762880102.256426,1.48
1762880102.26269,1.42
1762880102.268914,1.53
1762880102.275298,1.55
1762880102.281451,1.54
1762880102.287704,1.5
1762880102.29394,1.52
1762880102.300204,1.66
1762880102.3064058,1.6
1762880102.312705,1.58
1762880102.319263,1.73
1762880102.325261,1.74
1762880102.331584,1.73
1762880102.338058,1.68
1762880102.343905,1.67
1762880102.3501341,1.65
1762880102.356411,1.43
1762880102.36274,1.42
1762880102.368941,1.52
1762880102.375231,1.42
1762880102.381632,1.41
1762880102.387681,1.42
1762880102.393879,1.44
1762880102.4001439,1.5
1762880102.406362,1.44
1762880102.412956,1.4
1762880102.418964,1.46
1762880102.4251719,1.43
1762880102.431401,1.44
1762880102.43763,1.45
1762880102.443847,1.44
1762880102.450163,1.52
1762880102.456474,1.47
1762880102.462825,1.47
1762880102.46892,1.49
1762880102.4750872,1.45
1762880102.481374,1.56
1762880102.4876952,1.7
1762880102.498053,1.91
1762880102.5274398,2.6
1762880102.527626,3.17
1762880102.527772,3.17
1762880102.528126,3.17
1762880102.5282712,2.66
1762880102.5733278,0.83
1762880102.576701,1.09
1762880102.577452,1.8
1762880102.5780768,1.63
1762880102.579071,1.3
1762880102.581642,1.42
1762880102.5904021,1.53
1762880102.590755,1.4
1762880102.59096,1.41
1762880102.5911648,1.5
1762880102.597285,1.47
1762880102.600224,1.45
1762880102.6064398,1.4
1762880102.6127841,1.48
1762880102.618967,1.54
1762880102.6335738,1.47
1762880102.633735,1.49
1762880102.638079,1.49
1762880102.64389,1.5
1762880102.65025,1.59
1762880102.6563892,1.58
1762880102.662616,1.57
1762880102.66886,1.62
1762880102.675157,1.58
1762880102.6814551,1.59
1762880102.6876822,1.6
1762880102.693908,1.66
1762880102.700255,1.74
1762880102.706464,1.68
1762880102.712657,1.71
1762880102.718902,1.77
1762880102.725161,1.74
1762880102.7314079,1.8
1762880102.7379782,1.83
1762880102.743793,1.8
1762880102.7502599,1.84
1762880102.756331,1.79
1762880102.7627141,1.79
1762880102.76879,1.87
1762880102.775187,1.76
1762880102.781396,1.68
1762880102.78757,1.66
1762880102.793998,1.57
1762880102.8002188,1.56
1762880102.806358,1.53
1762880102.812638,1.49
1762880102.8188212,1.5
1762880102.8252878,1.44
1762880102.831279,1.46
1762880102.837539,1.48
1762880102.843792,1.44
1762880102.850162,1.48
1762880102.856281,1.46
1762880102.863167,1.49
1762880102.868843,1.52
1762880102.875056,1.45
1762880102.881307,1.5
1762880102.887636,1.51
1762880102.89379,1.47
1762880102.900136,1.53
1762880102.906271,1.51
1762880102.912521,1.51
1762880102.9188118,1.54
1762880102.925067,1.48
1762880102.9312441,1.53
1762880102.937624,1.56
1762880102.943743,1.52
1762880102.950379,1.55
1762880102.956409,1.51
1762880102.962576,1.54
1762880102.968852,1.6
1762880102.9750662,1.52
1762880102.981303,1.52
1762880102.987642,1.52
1762880102.9937851,1.51
1762880103.000192,1.56
1762880103.0064058,1.52
1762880103.012577,1.52
1762880103.018815,1.56
1762880103.025274,1.51
1762880103.0313401,1.54
1762880103.037573,1.63
1762880103.043784,1.62
1762880103.050035,1.64
1762880103.056222,1.68
1762880103.0625129,1.77
1762880103.068892,1.77
1762880103.075077,1.65
1762880103.081246,1.69
1762880103.0874739,1.73
1762880103.0937521,1.55
1762880103.100062,1.51
1762880103.106317,1.46
1762880103.112534,1.47
1762880103.118967,1.48
1762880103.125121,1.43
1762880103.13131,1.51
1762880103.142643,1.5
1762880103.148504,1.43
1762880103.176673,1.49
1762880103.2085838,1.48
1762880103.208794,1.47
1762880103.208957,1.52
1762880103.2115998,1.46
1762880103.21226,1.47
1762880103.215013,1.52
1762880103.215394,1.52
1762880103.215858,1.56
1762880103.216128,1.52
1762880103.216327,1.5
1762880103.2188108,1.63
1762880103.225112,1.77
1762880103.232247,2.24
1762880103.239955,3.1
1762880103.243818,3.17
1762880103.250123,3.17
1762880103.256261,3.16
1762880103.2625148,1.97
1762880103.268832,0.78
1762880103.275048,1.44
1762880103.2813811,1.82
1762880103.287561,1.49
1762880103.293878,1.3
1762880103.300041,1.47
1762880103.306269,1.51
1762880103.312532,1.45
1762880103.318837,1.46
1762880103.325094,1.43
1762880103.331254,1.46
1762880103.337507,1.51
1762880103.343713,1.48
1762880103.3500211,1.5
1762880103.356226,1.48
1762880103.362495,1.5
1762880103.3688378,1.53
1762880103.374968,1.51
1762880103.381223,1.55
1762880103.3874402,1.59
1762880103.393731,1.53
1762880103.4000902,1.58
1762880103.4062421,1.57
1762880103.412407,1.58
1762880103.4188669,1.66
1762880103.424908,1.64
1762880103.431189,1.67
1762880103.437473,1.69
1762880103.443604,1.7
1762880103.4500139,1.79
1762880103.456161,1.75
1762880103.462464,1.75
1762880103.468759,1.84
1762880103.4749079,1.78
1762880103.4812632,1.79
1762880103.4874082,1.83
1762880103.4937239,1.82
1762880103.499916,1.81
1762880103.50624,1.76
1762880103.512408,1.71
1762880103.519089,1.7
1762880103.5249112,1.6
1762880103.5311391,1.6
1762880103.537457,1.54
1762880103.5436108,1.45
1762880103.549973,1.51
1762880103.556182,1.49
1762880103.562551,1.43
1762880103.5687501,1.45
1762880103.5748851,1.42
1762880103.581245,1.43
1762880103.587431,1.46
1762880103.5936131,1.45
1762880103.5999732,1.49
1762880103.606288,1.45
1762880103.612431,1.45
1762880103.618784,1.48
1762880103.624914,1.43
1762880103.6312,1.49
1762880103.637571,1.54
1762880103.643604,1.48
1762880103.649906,1.52
1762880103.6561909,1.5
1762880103.662347,1.47
1762880103.669482,1.53
1762880103.674882,1.53
1762880103.681206,1.55
1762880103.687474,1.53
1762880103.6936278,1.5
1762880103.699902,1.55
1762880103.706197,1.5
1762880103.712349,1.49
1762880103.718673,1.55
1762880103.724879,1.51
1762880103.731075,1.48
1762880103.737479,1.52
1762880103.743618,1.51
1762880103.749884,1.55
1762880103.756175,1.52
1762880103.76241,1.55
1762880103.768682,1.64
1762880103.774872,1.57
1762880103.781128,1.64
1762880103.7872992,1.74
1762880103.7936552,1.73
1762880103.799883,1.72
1762880103.806165,1.64
1762880103.8123908,1.61
1762880103.8188171,1.53
1762880103.8248188,1.48
1762880103.831188,1.49
1762880103.837436,1.44
1762880103.8435788,1.39
1762880103.849885,1.46
1762880103.856089,1.45
1762880103.862331,1.41
1762880103.868717,1.48
1762880103.874966,1.43
1762880103.881088,1.41
1762880103.887466,1.46
1762880103.893525,1.43
1762880103.899887,1.49
1762880103.906154,1.47
1762880103.912386,1.45
1762880103.919181,1.51
1762880103.924911,1.48
1762880103.931082,1.5
1762880103.937325,1.5
1762880103.943499,1.49
1762880103.949826,1.76
1762880103.956146,2.21
1762880103.962646,3.02
1762880103.969453,3.17
1762880103.974942,3.17
1762880103.981139,3.17
1762880103.987381,2.07
1762880103.993563,0.69
1762880103.9999192,1.41
1762880104.006099,1.78
1762880104.012375,1.41
1762880104.018754,1.32
1762880104.024899,1.45
1762880104.031086,1.48
1762880104.037397,1.42
1762880104.0435321,1.41
1762880104.0498629,1.44
1762880104.056032,1.44
1762880104.062443,1.48
1762880104.0688262,1.49
1762880104.0748549,1.38
1762880104.081121,1.46
1762880104.087297,1.56
1762880104.093606,1.49
1762880104.099874,1.49
1762880104.106117,1.47
1762880104.112285,1.55
1762880104.118604,1.58
1762880104.124789,1.52
1762880104.131114,1.58
1762880104.137289,1.62
1762880104.1434681,1.56
1762880104.149787,1.63
1762880104.156095,1.63
1762880104.162366,1.65
1762880104.168622,1.73
1762880104.1747708,1.7
1762880104.181103,1.71
1762880104.1873379,1.79
1762880104.193461,1.76
1762880104.19982,1.77
1762880104.2062578,1.78
1762880104.212366,1.8
1762880104.218855,1.83
1762880104.2248268,1.77
1762880104.231097,1.76
1762880104.237244,1.7
1762880104.243528,1.62
1762880104.249789,1.66
1762880104.256098,1.55
1762880104.262252,1.46
1762880104.268655,1.51
1762880104.274783,1.43
1762880104.28109,1.43
1762880104.2872808,1.45
1762880104.293625,1.36
1762880104.299801,1.42
1762880104.306108,1.4
1762880104.312294,1.39
1762880104.318709,1.45
1762880104.324822,1.4
1762880104.330996,1.41
1762880104.337277,1.43
1762880104.343445,1.42
1762880104.349731,1.46
1762880104.356055,1.43
1762880104.362237,1.46
1762880104.368599,1.49
1762880104.374725,1.42
1762880104.381071,1.47
1762880104.38721,1.52
1762880104.393486,1.47
1762880104.399766,1.52
1762880104.406042,1.5
1762880104.4122639,1.46
1762880104.418483,1.5
1762880104.424784,1.51
1762880104.4311738,1.52
1762880104.4373388,1.51
1762880104.443449,1.45
1762880104.4497972,1.5
1762880104.456048,1.5
1762880104.46227,1.49
1762880104.468578,1.52
1762880104.474784,1.46
1762880104.480955,1.47
1762880104.48719,1.49
1762880104.493429,1.47
1762880104.499725,1.49
1762880104.5059469,1.45
1762880104.5123122,1.49
1762880104.5186172,1.54
1762880104.524735,1.51
1762880104.53104,1.6
1762880104.5372758,1.6
1762880104.543443,1.57
1762880104.549726,1.74
1762880104.55598,1.74
1762880104.568057,1.65
1762880104.569205,1.65
1762880104.5839949,1.63
1762880104.6035872,1.61
1762880104.607191,1.51
1762880104.6072938,1.41
1762880104.6073658,1.46
1762880104.607436,1.43
1762880104.6136441,1.43
1762880104.619266,1.45
1762880104.624824,1.41
1762880104.6326668,1.43
1762880104.637281,1.49
1762880104.6434839,1.41
1762880104.649732,1.42
1762880104.656066,1.47
1762880104.662195,1.47
1762880104.6692228,1.48
1762880104.674912,1.44
1762880104.681056,1.51
1762880104.6878731,1.53
1762880104.693433,1.44
1762880104.699797,1.51
1762880104.70616,1.55
1762880104.7122712,1.72
1762880104.7186282,2.12
1762880104.7247841,2.83
1762880104.731025,3.17
1762880104.7372859,3.17
1762880104.743391,3.17
1762880104.7497149,2.13
1762880104.756032,0.69
1762880104.762143,1.35
1762880104.7684422,1.86
1762880104.774667,1.46
1762880104.781048,1.32
1762880104.787263,1.48
1762880104.793476,1.41
1762880104.7996821,1.45
1762880104.806004,1.46
1762880104.812192,1.44
1762880104.8184729,1.48
1762880104.824718,1.41
1762880104.831257,1.46
1762880104.837151,1.52
1762880104.843431,1.48
1762880104.8498309,1.51
1762880104.8558452,1.49
1762880104.862185,1.49
1762880104.868515,1.55
1762880104.8746932,1.52
1762880104.880922,1.58
1762880104.887142,1.62
1762880104.8933718,1.56
1762880104.899682,1.59
1762880104.905876,1.63
1762880104.912102,1.64
1762880104.9184902,1.67
1762880104.924705,1.66
1762880104.9309142,1.72
1762880104.937168,1.76
1762880104.943454,1.74
1762880104.94969,1.8
1762880104.955959,1.81
1762880104.962202,1.82
1762880104.9684842,1.87
1762880104.974715,1.82
1762880104.980941,1.82
1762880104.9871738,1.85
1762880104.993309,1.8
1762880104.9997592,1.79
1762880105.0059168,1.69
1762880105.0122628,1.62
1762880105.018534,1.61
1762880105.024797,1.53
1762880105.030854,1.52
1762880105.0372102,1.48
1762880105.043392,1.4
1762880105.0496728,1.49
1762880105.0559301,1.5
1762880105.062171,1.42
1762880105.068464,1.44
1762880105.074809,1.39
1762880105.0808551,1.43
1762880105.087132,1.48
1762880105.0933602,1.45
1762880105.099783,1.47
1762880105.105943,1.43
1762880105.1121368,1.44
1762880105.1189451,1.5
1762880105.124667,1.45
1762880105.130917,1.47
1762880105.137163,1.52
1762880105.143316,1.46
1762880105.149688,1.52
1762880105.155808,1.53
1762880105.162119,1.5
1762880105.1685472,1.54
1762880105.174624,1.49
1762880105.180843,1.5
1762880105.1870432,1.51
1762880105.193299,1.5
1762880105.199554,1.55
1762880105.205838,1.54
1762880105.2121909,1.49
1762880105.218327,1.55
1762880105.224608,1.49
1762880105.230836,1.5
1762880105.237196,1.53
1762880105.2434828,1.5
1762880105.24969,1.5
1762880105.2558122,1.47
1762880105.262155,1.5
1762880105.26845,1.56
1762880105.274564,1.5
1762880105.281031,1.49
1762880105.287044,1.51
1762880105.29338,1.5
1762880105.300004,1.54
1762880105.306001,1.48
1762880105.3121548,1.49
1762880105.318339,1.58
1762880105.324533,1.56
1762880105.330852,1.62
1762880105.337014,1.68
1762880105.3433442,1.65
1762880105.349598,1.77
1762880105.355815,1.76
1762880105.362083,1.62
1762880105.368335,1.62
1762880105.374531,1.65
1762880105.3808131,1.6
1762880105.387128,1.5
1762880105.393267,1.47
1762880105.3996549,1.53
1762880105.405953,1.48
1762880105.412063,1.39
1762880105.418844,1.48
1762880105.424789,1.5
1762880105.430937,1.51
1762880105.437398,1.5
1762880105.443329,1.42
1762880105.4496021,1.48
1762880105.4561212,1.51
1762880105.462087,1.5
1762880105.468572,1.54
1762880105.47474,1.51
1762880105.4808378,1.5
1762880105.487009,1.55
1762880105.493269,1.52
1762880105.499671,1.55
1762880105.5057778,1.61
1762880105.512141,1.8
1762880105.518334,2.24
1762880105.524547,2.96
1762880105.530745,3.17
1762880105.537069,3.17
1762880105.5432441,3.16
1762880105.550035,1.98
1762880105.555797,0.75
1762880105.562096,1.47
1762880105.568342,1.88
1762880105.574487,1.45
1762880105.5808399,1.36
1762880105.586963,1.55
1762880105.593222,1.49
1762880105.600385,1.48
1762880105.605783,1.52
1762880105.611995,1.5
1762880105.6183732,1.52
1762880105.624504,1.5
1762880105.6308138,1.52
1762880105.6369689,1.57
1762880105.643223,1.55
1762880105.649836,1.59
1762880105.6557171,1.56
1762880105.662076,1.56
1762880105.668277,1.64
1762880105.674617,1.59
1762880105.680885,1.57
1762880105.6870458,1.62
1762880105.693213,1.63
1762880105.699601,1.7
1762880105.7057889,1.69
1762880105.71197,1.67
1762880105.718258,1.77
1762880105.724499,1.74
1762880105.730737,1.75
1762880105.73696,1.84
1762880105.743202,1.8
1762880105.749622,1.88
1762880105.755727,1.89
1762880105.7620401,1.85
1762880105.76829,1.94
1762880105.774463,1.93
1762880105.780705,1.9
1762880105.786978,1.91
1762880105.7932968,1.85
1762880105.7995598,1.86
1762880105.805801,1.77
1762880105.8120608,1.72
1762880105.81834,1.74
1762880105.824578,1.62
1762880105.830739,1.58
1762880105.837024,1.55
1762880105.843192,1.51
1762880105.849814,1.55
1762880105.855671,1.51
1762880105.862048,1.46
1762880105.868226,1.53
1762880105.8744938,1.51
1762880105.880766,1.5
1762880105.8869839,1.52
1762880105.8983092,1.52
1762880105.930351,1.53
1762880105.951318,1.52
1762880105.951469,1.53
1762880105.953695,1.57
1762880105.954262,1.51
1762880105.9543371,1.54
1762880105.954398,1.6
1762880105.954458,1.54
1762880105.9549599,1.6
1762880105.957526,1.61
1762880105.962049,1.56
1762880105.969474,1.61
1762880105.975061,1.57
1762880105.9838028,1.6
1762880105.986974,1.62
1762880105.993174,1.56
1762880105.9995751,1.59
1762880106.0058439,1.57
1762880106.011981,1.6
1762880106.018378,1.66
1762880106.024478,1.57
1762880106.030747,1.55
1762880106.0369012,1.59
1762880106.043135,1.58
1762880106.0497332,1.62
1762880106.05559,1.59
1762880106.06197,1.56
1762880106.068125,1.61
1762880106.074503,1.55
1762880106.080653,1.59
1762880106.086842,1.61
1762880106.093125,1.56
1762880106.100066,1.6
1762880106.105692,1.58
1762880106.111926,1.53
1762880106.1181922,1.62
1762880106.12439,1.62
1762880106.13068,1.6
1762880106.136958,1.6
1762880106.143074,1.53
1762880106.149457,1.57
1762880106.1557388,1.64
1762880106.1619468,1.64
1762880106.168144,1.71
1762880106.174422,1.69
1762880106.1806421,1.73
1762880106.186831,1.8
1762880106.193155,1.78
1762880106.199469,1.77
1762880106.205646,1.71
1762880106.21198,1.73
1762880106.2181098,1.74
1762880106.22441,1.58
1762880106.230641,1.57
1762880106.23685,1.6
1762880106.243177,1.52
1762880106.249513,1.54
1762880106.2556958,1.56
1762880106.26195,1.52
1762880106.26815,1.56
1762880106.2743602,1.55
1762880106.2807481,1.57
1762880106.2868512,1.6
1762880106.293087,1.53
1762880106.299382,1.58
1762880106.3055801,1.58
1762880106.311866,1.56
1762880106.318173,1.64
1762880106.3244128,1.6
1762880106.330593,1.56
1762880106.336899,1.6
1762880106.343071,1.64
1762880106.349419,1.82
1762880106.355602,2.08
1762880106.361869,2.69
1762880106.368112,3.17
1762880106.3743649,3.17
1762880106.3805969,3.17
1762880106.3869078,2.93
1762880106.393139,1.1
1762880106.399682,1.1
1762880106.405687,1.82
1762880106.411961,1.68
1762880106.418366,1.46
1762880106.4244192,1.47
1762880106.4307048,1.55
1762880106.436857,1.57
1762880106.443095,1.49
1762880106.450152,1.5
1762880106.4556391,1.53
1762880106.461973,1.55
1762880106.4681878,1.58
1762880106.474423,1.53
1762880106.480598,1.55
1762880106.4869068,1.6
1762880106.493094,1.56
1762880106.499545,1.61
1762880106.505686,1.58
1762880106.51189,1.54
1762880106.5181499,1.65
1762880106.524392,1.63
1762880106.530622,1.6
1762880106.537163,1.67
1762880106.543139,1.66
1762880106.5506308,1.7
1762880106.5558138,1.73
1762880106.5619059,1.71
1762880106.568062,1.75
1762880106.574456,1.75
1762880106.5806808,1.82
1762880106.5868218,1.9
1762880106.5930219,1.82
1762880106.599401,1.84
1762880106.605632,1.91
1762880106.611809,1.88
1762880106.6181812,1.9
1762880106.62432,1.88
1762880106.630653,1.87
1762880106.636814,1.87
1762880106.642994,1.75
1762880106.6496031,1.72
1762880106.6555798,1.68
1762880106.661881,1.59
1762880106.668032,1.56
1762880106.674283,1.48
1762880106.680629,1.5
1762880106.686856,1.53
1762880106.693127,1.46
1762880106.69961,1.45
1762880106.705577,1.45
1762880106.711864,1.42
1762880106.7180421,1.48
1762880106.724405,1.45
1762880106.730618,1.47
1762880106.736772,1.51
1762880106.743031,1.4
1762880106.749262,1.46
1762880106.755612,1.53
1762880106.761848,1.48
1762880106.768074,1.5
1762880106.774322,1.45
1762880106.780627,1.46
1762880106.7868319,1.54
1762880106.792995,1.51
1762880106.79935,1.53
1762880106.8055732,1.53
1762880106.8118742,1.51
1762880106.817995,1.55
1762880106.824229,1.48
1762880106.830475,1.49
1762880106.8367748,1.58
1762880106.843039,1.48
1762880106.849715,1.5
1762880106.855569,1.5
1762880106.8618162,1.49
1762880106.8680289,1.56
1762880106.874332,1.51
1762880106.8806589,1.48
1762880106.886816,1.53
1762880106.893022,1.5
1762880106.899323,1.5
1762880106.905699,1.49
1762880106.911817,1.48
1762880106.918028,1.53
1762880106.924243,1.49
1762880106.930469,1.49
1762880106.936799,1.54
1762880106.942975,1.47
1762880106.949368,1.49
1762880106.955477,1.49
1762880106.9617631,1.5
1762880106.96801,1.59
1762880106.9743118,1.56
1762880106.980619,1.57
1762880106.986712,1.67
1762880106.992984,1.67
1762880106.999308,1.73
1762880107.005484,1.66
1762880107.011874,1.59
1762880107.018081,1.68
1762880107.02431,1.55
1762880107.058923,1.51
1762880107.071531,1.54
1762880107.071651,1.43
1762880107.086018,1.48
1762880107.086176,1.48
1762880107.086261,1.42
1762880107.0863528,1.46
1762880107.091346,1.43
1762880107.0914261,1.48
1762880107.091478,1.52
1762880107.10284,1.43
1762880107.1029649,1.45
1762880107.109214,1.49
1762880107.117603,1.46
1762880107.118709,1.52
1762880107.1242292,1.51
1762880107.133454,1.51
1762880107.136773,1.52
1762880107.143091,1.5
1762880107.1494122,1.64
1762880107.15556,1.84
1762880107.1618161,2.36
1762880107.168582,3.16
1762880107.174195,3.17
1762880107.1806238,3.17
1762880107.186709,3.15
1762880107.193006,1.51
1762880107.199612,0.82
1762880107.205489,1.62
1762880107.211782,1.68
1762880107.218761,1.38
1762880107.2252538,1.36
1762880107.231789,1.46
1762880107.236798,1.46
1762880107.242969,1.38
1762880107.249256,1.43
1762880107.255426,1.45
1762880107.26175,1.44
1762880107.268094,1.49
1762880107.2743108,1.46
1762880107.280426,1.46
1762880107.2866611,1.51
1762880107.2928572,1.44
1762880107.29915,1.49
1762880107.305411,1.52
1762880107.311697,1.49
1762880107.31802,1.56
1762880107.324189,1.54
1762880107.3304188,1.51
1762880107.3367271,1.59
1762880107.343085,1.58
1762880107.350216,1.6
1762880107.364361,1.65
1762880107.380163,1.64
1762880107.381997,1.68
1762880107.3821561,1.68
1762880107.3823218,1.71
1762880107.404593,1.77
1762880107.404754,1.77
1762880107.4048839,1.82
1762880107.426948,1.79
1762880107.427367,1.75
1762880107.428311,1.87
1762880107.428509,1.84
1762880107.4309871,1.77
1762880107.4367418,1.81
1762880107.448878,1.74
1762880107.449394,1.7
1762880107.455502,1.61
1762880107.467704,1.52
1762880107.4680262,1.54
1762880107.474379,1.44
1762880107.480451,1.43
1762880107.486784,1.47
1762880107.492953,1.39
1762880107.499274,1.4
1762880107.5054479,1.41
1762880107.511904,1.37
1762880107.517932,1.41
1762880107.524117,1.35
1762880107.530356,1.37
1762880107.536646,1.45
1762880107.543007,1.42
1762880107.549133,1.41
1762880107.5554,1.36
1762880107.5617359,1.36
1762880107.567863,1.46
1762880107.5740979,1.45
1762880107.580354,1.46
1762880107.5867012,1.47
1762880107.592919,1.39
1762880107.5990689,1.46
1762880107.605373,1.48
1762880107.611627,1.45
1762880107.617944,1.5
1762880107.624099,1.45
1762880107.630393,1.43
1762880107.636601,1.49
1762880107.642902,1.42
1762880107.649405,1.46
1762880107.6554508,1.48
1762880107.661664,1.42
1762880107.667899,1.47
1762880107.674195,1.45
1762880107.680653,1.44
1762880107.686574,1.51
1762880107.6929321,1.46
1762880107.6992471,1.45
1762880107.7053142,1.45
1762880107.711694,1.39
1762880107.717845,1.48
1762880107.7240582,1.48
1762880107.7307541,1.43
1762880107.736695,1.45
1762880107.742879,1.44
1762880107.749232,1.58
1762880107.75533,1.6
1762880107.761556,1.5
1762880107.7678971,1.65
1762880107.774236,1.74
1762880107.78027,1.64
1762880107.786627,1.56
1762880107.79285,1.55
1762880107.79917,1.64
1762880107.80531,1.55
1762880107.811572,1.42
1762880107.8178508,1.42
1762880107.824088,1.39
1762880107.830442,1.4
1762880107.8365571,1.42
1762880107.843044,1.37
1762880107.8491158,1.41
1762880107.8553338,1.45
1762880107.8616,1.39
1762880107.867816,1.42
1762880107.873999,1.39
1762880107.880356,1.37
1762880107.8866172,1.46
1762880107.893027,1.43
1762880107.899105,1.46
1762880107.905388,1.47
1762880107.9117088,1.43
1762880107.917981,1.47
1762880107.9241018,1.55
1762880107.9303539,1.73
1762880107.936534,2.11
1762880107.94287,2.89
1762880107.949235,3.17
1762880107.9553092,3.17
1762880107.961596,3.17
1762880107.9677272,2.23
1762880107.974071,0.65
1762880107.980344,1.22
1762880107.98666,1.83
1762880107.992809,1.44
1762880107.999146,1.28
1762880108.0053592,1.42
1762880108.011607,1.4
1762880108.017762,1.4
1762880108.024172,1.38
1762880108.030287,1.41
1762880108.036682,1.46
1762880108.042837,1.4
1762880108.049092,1.45
1762880108.055291,1.46
1762880108.061675,1.44
1762880108.0677938,1.49
1762880108.073998,1.41
1762880108.081235,1.44
1762880108.086519,1.54
1762880108.0927858,1.48
1762880108.0990741,1.5
1762880108.105397,1.53
1762880108.111547,1.54
1762880108.117839,1.59
1762880108.12405,1.55
1762880108.130857,1.57
1762880108.136539,1.66
1762880108.142826,1.61
1762880108.1490939,1.67
1762880108.1552582,1.74
1762880108.161611,1.72
1762880108.167792,1.78
1762880108.17406,1.75
1762880108.180418,1.74
1762880108.1865048,1.84
1762880108.192726,1.84
1762880108.199105,1.85
1762880108.2052531,1.8
1762880108.211651,1.71
1762880108.2177432,1.78
1762880108.223902,1.7
1762880108.2307992,1.62
1762880108.236502,1.59
1762880108.242708,1.51
1762880108.248985,1.51
1762880108.25537,1.43
1762880108.261976,1.38
1762880108.267921,1.46
1762880108.274144,1.4
1762880108.28032,1.35
1762880108.286488,1.36
1762880108.292812,1.37
1762880108.298989,1.45
1762880108.305367,1.42
1762880108.31156,1.35
1762880108.3177211,1.4
1762880108.323922,1.41
1762880108.330357,1.4
1762880108.3365161,1.44
1762880108.342717,1.4
1762880108.3490932,1.44
1762880108.355244,1.47
1762880108.3618062,1.43
1762880108.3677068,1.46
1762880108.374036,1.46
1762880108.3803132,1.46
1762880108.386511,1.5
1762880108.39286,1.44
1762880108.399059,1.49
1762880108.4053671,1.51
1762880108.411585,1.47
1762880108.41782,1.52
1762880108.42396,1.46
1762880108.430239,1.47
1762880108.436537,1.52
1762880108.442734,1.46
1762880108.4490728,1.47
1762880108.455169,1.5
1762880108.4619808,1.46
1762880108.467718,1.49
1762880108.4740129,1.44
1762880108.481159,1.45
1762880108.4864929,1.52
1762880108.4927108,1.45
1762880108.4992,1.47
1762880108.505288,1.5
1762880108.511657,1.43
1762880108.517817,1.53
1762880108.523923,1.54
1762880108.5302699,1.56
1762880108.5366242,1.63
1762880108.542714,1.58
1762880108.5489979,1.71
1762880108.555156,1.77
1762880108.5616279,1.69
1762880108.5676281,1.65
1762880108.573979,1.64
1762880108.580242,1.61
1762880108.586377,1.58
1762880108.592662,1.44
1762880108.5989492,1.43
1762880108.605132,1.46
1762880108.6114109,1.43
1762880108.617624,1.47
1762880108.623955,1.44
1762880108.630217,1.43
1762880108.6363552,1.46
1762880108.642664,1.45
1762880108.6489239,1.51
1762880108.6551208,1.45
1762880108.6619048,1.4
1762880108.66765,1.51
1762880108.673901,1.5
1762880108.680192,1.48
1762880108.6863391,1.51
1762880108.6926742,1.49
1762880108.699036,1.53
1762880108.705076,1.66
1762880108.711489,1.85
1762880108.717665,2.4
1762880108.723912,3.16
1762880108.730177,3.17
1762880108.736285,3.17
1762880108.7426171,3.15
1762880108.7488651,1.48
1762880108.755095,0.76
1762880108.761421,1.61
1762880108.767694,1.82
1762880108.773909,1.36
1762880108.780303,1.32
1762880108.7916448,1.52
1762880108.807062,1.43
1762880108.813042,1.43
1762880108.817486,1.49
1762880108.82142,1.43
1762880108.8341188,1.48
1762880108.84623,1.5
1762880108.846313,1.47
1762880108.846367,1.49
1762880108.8464189,1.49
1762880108.851027,1.51
1762880108.855187,1.52
1762880108.8614872,1.52
1762880108.86944,1.59
1762880108.873903,1.55
1762880108.881751,1.54
1762880108.886368,1.64
1762880108.8926451,1.61
1762880108.8990378,1.62
1762880108.9051158,1.62
1762880108.911437,1.64
1762880108.917602,1.74
1762880108.923947,1.71
1762880108.930141,1.71
1762880108.936331,1.8
1762880108.9426482,1.81
1762880108.948831,1.84
1762880108.955143,1.87
1762880108.9614139,1.86
1762880108.9675689,1.94
1762880108.973912,1.9
1762880108.980217,1.84
1762880108.9863229,1.9
1762880108.992648,1.87
1762880108.998862,1.83
1762880109.0051231,1.75
1762880109.011449,1.66
1762880109.017555,1.66
1762880109.0238562,1.6
1762880109.030498,1.53
1762880109.036342,1.54
1762880109.042604,1.5
1762880109.048822,1.52
1762880109.055108,1.52
1762880109.061803,1.44
1762880109.067637,1.51
1762880109.073824,1.56
1762880109.0801952,1.52
1762880109.086285,1.52
1762880109.092702,1.48
1762880109.098867,1.52
1762880109.105076,1.56
1762880109.111508,1.53
1762880109.117734,1.59
1762880109.124031,1.53
1762880109.130155,1.51
1762880109.136321,1.63
1762880109.142595,1.6
1762880109.1488252,1.57
1762880109.155123,1.6
1762880109.161809,1.6
1762880109.167564,1.67
1762880109.1737769,1.63
1762880109.180099,1.61
1762880109.1862998,1.66
1762880109.192699,1.6
1762880109.198794,1.63
1762880109.205056,1.69
1762880109.2117062,1.64
1762880109.2175128,1.68
1762880109.223795,1.63
1762880109.230172,1.6
1762880109.236256,1.72
1762880109.2427251,1.64
1762880109.248789,1.63
1762880109.255004,1.72
1762880109.26151,1.65
1762880109.267544,1.69
1762880109.2738008,1.7
1762880109.280123,1.68
1762880109.286387,1.72
1762880109.292894,1.77
1762880109.2988002,1.88
1762880109.3050072,1.86
1762880109.311361,1.81
1762880109.3176892,2.0
1762880109.3239539,2.02
1762880109.330129,1.87
1762880109.336298,1.91
1762880109.34257,1.88
1762880109.34878,1.81
1762880109.355055,1.77
1762880109.361297,1.68
1762880109.367549,1.7
1762880109.373843,1.67
1762880109.380414,1.65
1762880109.3862689,1.7
1762880109.392517,1.67
1762880109.3987641,1.69
1762880109.405163,1.7
1762880109.4115698,1.7
1762880109.417523,1.77
1762880109.423829,1.71
1762880109.4305458,1.68
1762880109.436276,1.77
1762880109.442574,1.73
1762880109.448808,1.77
1762880109.455264,1.8
1762880109.4613152,1.76
1762880109.467623,1.9
1762880109.473791,2.09
1762880109.4800792,2.51
1762880109.4862819,3.16
1762880109.492481,3.17
1762880109.498898,3.18
1762880109.505064,3.17
1762880109.511519,2.65
1762880109.517684,1.2
1762880109.523838,1.5
1762880109.530192,2.07
1762880109.5362718,1.88
1762880109.5425038,1.56
1762880109.548739,1.7
1762880109.55503,1.78
1762880109.5615208,1.69
1762880109.56759,1.75
1762880109.573868,1.74
1762880109.580224,1.71
1762880109.5862348,1.77
1762880109.592545,1.72
1762880109.5987751,1.73
1762880109.605189,1.77
1762880109.6113331,1.72
1762880109.617517,1.74
1762880109.623876,1.77
1762880109.629997,1.77
1762880109.636217,1.8
1762880109.6426182,1.74
1762880109.648711,1.78
1762880109.6551192,1.84
1762880109.6613262,1.76
1762880109.667518,1.84
1762880109.673889,1.87
1762880109.68011,1.87
1762880109.68617,1.91
1762880109.692548,1.89
1762880109.69881,1.95
1762880109.704941,1.99
1762880109.7115,1.93
1762880109.717483,2.0
1762880109.723718,2.08
1762880109.730169,2.03
1762880109.7361898,2.03
1762880109.742443,1.98
1762880109.7486389,1.98
1762880109.755004,2.04
1762880109.761466,1.93
1762880109.767593,1.89
1762880109.773746,1.83
1762880109.78018,1.76
1762880109.7861362,1.75
1762880109.7924092,1.65
1762880109.798686,1.61
1762880109.8049622,1.65
1762880109.81121,1.61
1762880109.817409,1.63
1762880109.8236742,1.56
1762880109.830197,1.53
1762880109.836349,1.64
1762880109.842444,1.6
1762880109.848757,1.56
1762880109.8549278,1.63
1762880109.861265,1.59
1762880109.8674428,1.62
1762880109.8738089,1.64
1762880109.8802009,1.6
1762880109.886288,1.66
1762880109.892441,1.64
1762880109.898721,1.64
1762880109.904928,1.66
1762880109.911266,1.61
1762880109.917449,1.64
1762880109.923685,1.64
1762880109.929949,1.64
1762880109.9361129,1.7
1762880109.9424572,1.58
1762880109.948666,1.62
1762880109.9548821,1.72
1762880109.961278,1.62
1762880109.967443,1.63
1762880109.973734,1.65
1762880109.9799628,1.62
1762880109.986208,1.65
1762880109.992401,1.64
1762880109.998623,1.64
1762880110.0049112,1.63
1762880110.011337,1.56
1762880110.01742,1.61
1762880110.0237079,1.6
1762880110.030119,1.57
1762880110.036203,1.66
1762880110.04245,1.64
1762880110.048629,1.68
1762880110.0551,1.68
1762880110.061258,1.71
1762880110.067704,1.84
1762880110.073784,1.79
1762880110.080495,1.72
1762880110.08624,1.75
1762880110.092511,1.66
1762880110.09866,1.53
1762880110.105147,1.51
1762880110.1113322,1.46
1762880110.117538,1.47
1762880110.123832,1.43
1762880110.130219,1.39
1762880110.136322,1.46
1762880110.142473,1.41
1762880110.148674,1.41
1762880110.1548831,1.46
1762880110.161223,1.39
1762880110.1676989,1.45
1762880110.1737149,1.39
1762880110.180012,1.39
1762880110.1861892,1.5
1762880110.192488,1.44
1762880110.198706,1.42
1762880110.20513,1.48
1762880110.214043,1.43
1762880110.2338738,1.43
1762880110.284448,1.5
1762880110.2846878,1.7
1762880110.2848241,2.11
1762880110.285048,2.87
1762880110.285735,3.17
1762880110.286012,3.17
1762880110.2862048,3.16
1762880110.286344,1.71
1762880110.2864819,0.59
1762880110.2868118,1.43
1762880110.286942,1.78
1762880110.2931,1.28
1762880110.2985878,1.23
1762880110.304852,1.45
1762880110.313063,1.4
1762880110.317557,1.35
1762880110.323667,1.3
1762880110.330325,1.33
1762880110.33619,1.43
1762880110.342423,1.38
1762880110.348657,1.38
1762880110.354804,1.41
1762880110.361183,1.37
1762880110.367533,1.42
1762880110.373649,1.44
1762880110.380281,1.42
1762880110.3860888,1.46
1762880110.392334,1.41
1762880110.398607,1.45
1762880110.404788,1.5
1762880110.4114308,1.45
1762880110.417511,1.48
1762880110.42383,1.52
1762880110.430044,1.53
1762880110.436138,1.58
1762880110.442374,1.53
1762880110.44861,1.54
1762880110.4548638,1.66
1762880110.461169,1.62
1762880110.467551,1.67
1762880110.473985,1.66
1762880110.4799092,1.67
1762880110.486067,1.71
1762880110.492401,1.66
1762880110.4986959,1.73
1762880110.5050619,1.74
1762880110.511251,1.6
1762880110.5173728,1.64
1762880110.523852,1.59
1762880110.5302851,1.51
1762880110.536099,1.5
1762880110.5423942,1.4
1762880110.548651,1.35
1762880110.555004,1.4
1762880110.561242,1.33
1762880110.5674088,1.3
1762880110.573625,1.26
1762880110.580052,1.27
1762880110.586038,1.36
1762880110.5923882,1.29
1762880110.59855,1.25
1762880110.6048372,1.31
1762880110.611212,1.28
1762880110.617295,1.33
1762880110.623606,1.34
1762880110.629798,1.31
1762880110.636,1.35
1762880110.642284,1.3
1762880110.648494,1.33
1762880110.654763,1.39
1762880110.6612248,1.34
1762880110.667219,1.39
1762880110.673481,1.36
1762880110.679799,1.33
1762880110.686035,1.41
1762880110.6922638,1.35
1762880110.6987898,1.34
1762880110.704891,1.38
1762880110.711068,1.35
1762880110.717251,1.41
1762880110.723784,1.34
1762880110.729834,1.29
1762880110.736044,1.38
1762880110.742253,1.36
1762880110.748597,1.33
1762880110.754863,1.34
1762880110.761164,1.31
1762880110.767265,1.37
1762880110.773491,1.35
1762880110.779907,1.3
1762880110.7859259,1.37
1762880110.792293,1.33
1762880110.798569,1.34
1762880110.80478,1.36
1762880110.811181,1.29
1762880110.817526,1.34
1762880110.823623,1.38
1762880110.8298209,1.41
1762880110.8362088,1.45
1762880110.842514,1.44
1762880110.8486001,1.53
1762880110.854908,1.58
1762880110.8610969,1.5
1762880110.867457,1.51
1762880110.873503,1.5
1762880110.880078,1.42
1762880110.885945,1.33
1762880110.892309,1.28
1762880110.89862,1.29
1762880110.904953,1.27
1762880110.9111428,1.17
1762880110.917432,1.23
1762880110.923558,1.27
1762880110.9300091,1.21
1762880110.9359949,1.24
1762880110.9423518,1.23
1762880110.948555,1.24
1762880110.954758,1.25
1762880110.960971,1.23
1762880110.96734,1.3
1762880110.973695,1.25
1762880110.979697,1.21
1762880110.985951,1.32
1762880110.992194,1.29
1762880110.9984,1.28
1762880111.00466,1.3
1762880111.011214,1.36
1762880111.0172238,1.6
1762880111.0235589,2.09
1762880111.029793,2.95
1762880111.0359092,3.16
1762880111.042163,3.17
1762880111.048516,2.85
1762880111.054708,0.84
1762880111.0610602,0.7
1762880111.067323,1.63
1762880111.0736399,1.48
1762880111.079938,1.08
1762880111.08591,1.2
1762880111.0922089,1.3
1762880111.0984588,1.24
1762880111.104608,1.22
1762880111.1110651,1.22
1762880111.1172302,1.28
1762880111.123461,1.25
1762880111.129765,1.26
1762880111.135919,1.3
1762880111.142359,1.26
1762880111.148384,1.27
1762880111.154731,1.32
1762880111.161184,1.3
1762880111.167242,1.37
1762880111.173561,1.38
1762880111.179792,1.31
1762880111.185925,1.34
1762880111.192181,1.39
1762880111.198466,1.45
1762880111.204777,1.45
1762880111.21209,1.4
1762880111.21715,1.47
1762880111.2236779,1.49
1762880111.229826,1.49
1762880111.235997,1.57
1762880111.242242,1.53
1762880111.248388,1.56
1762880111.254713,1.64
1762880111.2610161,1.57
1762880111.2673678,1.62
1762880111.2735648,1.66
1762880111.2798111,1.6
1762880111.28606,1.68
1762880111.292234,1.65
1762880111.2983649,1.62
1762880111.3048708,1.62
1762880111.310946,1.53
1762880111.317258,1.52
1762880111.323413,1.47
1762880111.329776,1.39
1762880111.3359518,1.43
1762880111.34214,1.35
1762880111.3484821,1.29
1762880111.3546839,1.38
1762880111.361071,1.33
1762880111.367239,1.31
1762880111.373564,1.32
1762880111.37969,1.32
1762880111.385943,1.33
1762880111.392267,1.31
1762880111.398421,1.37
1762880111.4046679,1.38
1762880111.41186,1.33
1762880111.417214,1.42
1762880111.4234922,1.4
1762880111.4297018,1.36
1762880111.435843,1.44
1762880111.442209,1.38
1762880111.448361,1.38
1762880111.454664,1.44
1762880111.460968,1.38
1762880111.4671848,1.42
1762880111.4734788,1.46
1762880111.4796429,1.42
1762880111.485999,1.45
1762880111.4921348,1.4
1762880111.498406,1.42
1762880111.504788,1.45
1762880111.511128,1.41
1762880111.517355,1.46
1762880111.5233998,1.43
1762880111.529669,1.39
1762880111.5358841,1.46
1762880111.5421638,1.41
1762880111.548367,1.39
1762880111.55459,1.46
1762880111.562249,1.43
1762880111.567212,1.48
1762880111.5734458,1.44
1762880111.5796301,1.39
1762880111.5857868,1.49
1762880111.592097,1.5
1762880111.598333,1.52
1762880111.604615,1.56
1762880111.610829,1.55
1762880111.6170392,1.68
1762880111.62335,1.7
1762880111.629579,1.6
1762880111.635815,1.63
1762880111.642087,1.68
1762880111.7419379,1.56
1762880111.747561,1.39
1762880111.747783,1.41
1762880111.747919,1.47
1762880111.7480378,1.42
1762880111.7481558,1.34
1762880111.748649,1.42
1762880111.7490711,1.39
1762880111.7494762,1.38
1762880111.7498932,1.44
1762880111.750131,1.44
1762880111.750654,1.43
1762880111.750914,1.36
1762880111.751133,1.4
1762880111.7513468,1.49
1762880111.751762,1.44
1762880111.7519932,1.48
1762880111.754611,1.52
1762880111.760888,1.42
1762880111.767135,1.46
1762880111.773309,1.44
1762880111.77959,1.54
1762880111.785852,1.85
1762880111.792076,2.36
1762880111.798411,3.16
1762880111.8046458,3.17
1762880111.810826,3.17
1762880111.817069,3.14
1762880111.823303,1.43
1762880111.829932,0.76
1762880111.835773,1.65
1762880111.84236,1.74
1762880111.848406,1.32
1762880111.85456,1.3
1762880111.8609211,1.42
1762880111.8670468,1.46
1762880111.873426,1.41
1762880111.879602,1.41
1762880111.885802,1.51
1762880111.89204,1.43
1762880111.898369,1.42
1762880111.904566,1.5
1762880111.9108438,1.43
1762880111.9170518,1.47
1762880111.9232361,1.49
1762880111.929516,1.47
1762880111.935776,1.52
1762880111.942121,1.5
1762880111.948355,1.54
1762880111.954517,1.56
1762880111.961493,1.5
1762880111.984888,1.52
1762880111.9851022,1.59
1762880111.98527,1.58
1762880111.986954,1.62
1762880111.99595,1.61
1762880111.998262,1.68
1762880112.004538,1.69
1762880112.011659,1.72
1762880112.017108,1.77
1762880112.023412,1.71
1762880112.029494,1.69
1762880112.035799,1.82
1762880112.0420969,1.74
1762880112.048262,1.73
1762880112.054539,1.79
1762880112.0612118,1.77
1762880112.066962,1.76
1762880112.0732532,1.67
1762880112.079502,1.63
1762880112.085869,1.7
1762880112.092051,1.58
1762880112.09827,1.54
1762880112.104726,1.52
1762880112.1114082,1.41
1762880112.117167,1.47
1762880112.123265,1.47
1762880112.12955,1.42
1762880112.135734,1.48
1762880112.143303,1.39
1762880112.1482902,1.43
1762880112.154549,1.51
1762880112.161879,1.46
1762880112.167202,1.49
1762880112.173441,1.47
1762880112.1795661,1.43
1762880112.185874,1.52
1762880112.191985,1.46
1762880112.198365,1.49
1762880112.204607,1.52
1762880112.210813,1.45
1762880112.217128,1.47
1762880112.223535,1.5
1762880112.229546,1.53
1762880112.235942,1.56
1762880112.2420921,1.48
1762880112.248329,1.51
1762880112.2547681,1.6
1762880112.2609699,1.49
1762880112.267174,1.5
1762880112.273439,1.52
1762880112.279514,1.53
1762880112.285868,1.54
1762880112.292036,1.45
1762880112.2982771,1.51
1762880112.304481,1.53
1762880112.310761,1.43
1762880112.317021,1.53
1762880112.323303,1.55
1762880112.3295329,1.48
1762880112.335722,1.52
1762880112.342247,1.49
1762880112.348175,1.52
1762880112.354413,1.56
1762880112.3608801,1.51
1762880112.3669739,1.59
1762880112.3732648,1.63
1762880112.379422,1.62
1762880112.385729,1.7
1762880112.391938,1.72
1762880112.3981051,1.8
1762880112.404382,1.75
1762880112.4106638,1.59
1762880112.4170291,1.71
1762880112.4231849,1.7
1762880112.429486,1.54
1762880112.4357162,1.48
1762880112.4420018,1.44
1762880112.448104,1.49
1762880112.454391,1.5
1762880112.4607549,1.4
1762880112.466892,1.47
1762880112.4732301,1.5
1762880112.47935,1.47
1762880112.485652,1.5
1762880112.491908,1.47
1762880112.498107,1.47
1762880112.504364,1.52
1762880112.510831,1.46
1762880112.516983,1.55
1762880112.523251,1.54
1762880112.529481,1.47
1762880112.5356731,1.55
1762880112.542664,1.52
1762880112.5480661,1.56
1762880112.554435,1.74
1762880112.5607948,2.03
1762880112.5671449,2.84
1762880112.5733361,3.17
1762880112.5795221,3.17
1762880112.585909,3.17
1762880112.591958,2.62
1762880112.598322,0.87
1762880112.6043992,1.22
1762880112.61153,1.79
1762880112.617253,1.59
1762880112.623153,1.32
1762880112.6295831,1.4
1762880112.635668,1.56
1762880112.64198,1.45
1762880112.648161,1.43
1762880112.654495,1.52
1762880112.660846,1.43
1762880112.66711,1.49
1762880112.6732512,1.53
1762880112.6795,1.5
1762880112.685618,1.54
1762880112.691957,1.48
1762880112.6981251,1.52
1762880112.704438,1.55
1762880112.71202,1.49
1762880112.7171588,1.57
1762880112.723236,1.56
1762880112.7294059,1.54
1762880112.7356732,1.61
1762880112.742351,1.59
1762880112.748184,1.63
1762880112.754448,1.66
1762880112.7612119,1.63
1762880112.81361,1.69
1762880112.8351328,1.7
1762880112.835347,1.73
1762880112.835493,1.83
1762880112.8356469,1.74
1762880112.835778,1.72
1762880112.835863,1.82
1762880112.835949,1.82
1762880112.8360288,1.83
1762880112.836113,1.78
1762880112.836189,1.77
1762880112.836277,1.87
1762880112.841835,1.77
1762880112.8481479,1.69
1762880112.8543072,1.71
1762880112.861613,1.59
1762880112.867077,1.6
1762880112.873155,1.59
1762880112.879477,1.46
1762880112.886102,1.47
1762880112.891944,1.49
1762880112.898123,1.49
1762880112.904362,1.51
1762880112.910625,1.43
1762880112.9168692,1.47
1762880112.923052,1.47
1762880112.929375,1.43
1762880112.9357,1.48
1762880112.9418979,1.5
1762880112.948262,1.52
1762880112.954355,1.49
1762880112.9607198,1.42
1762880112.966826,1.54
1762880112.9730282,1.53
1762880112.9793978,1.47
1762880112.9855602,1.57
1762880112.992832,1.55
1762880112.998088,1.52
1762880113.004488,1.56
1762880113.010643,1.52
1762880113.0169759,1.53
1762880113.023028,1.54
1762880113.029481,1.51
1762880113.035587,1.59
1762880113.041913,1.53
1762880113.048179,1.49
1762880113.054393,1.54
1762880113.060684,1.5
1762880113.066977,1.56
1762880113.073288,1.55
1762880113.0793118,1.48
1762880113.0856268,1.55
1762880113.091913,1.52
1762880113.09817,1.52
1762880113.104459,1.54
1762880113.110809,1.48
1762880113.117074,1.52
1762880113.1230888,1.53
1762880113.1292958,1.5
1762880113.1355689,1.55
1762880113.142018,1.52
1762880113.148066,1.49
1762880113.154253,1.54
1762880113.160624,1.52
1762880113.1667929,1.53
1762880113.1730812,1.54
1762880113.179285,1.52
1762880113.1855092,1.57
1762880113.192152,1.53
1762880113.197969,1.56
1762880113.204226,1.67
1762880113.210515,1.65
1762880113.216661,1.68
1762880113.2229729,1.73
1762880113.2292,1.75
1762880113.235519,1.79
1762880113.242173,1.66
1762880113.247883,1.67
1762880113.254358,1.73
1762880113.2605069,1.54
1762880113.266786,1.51
1762880113.273105,1.51
1762880113.2794209,1.49
1762880113.285695,1.52
1762880113.2917728,1.45
1762880113.298053,1.5
1762880113.3043818,1.52
1762880113.310862,1.46
1762880113.316971,1.52
1762880113.323112,1.52
1762880113.32928,1.48
1762880113.335459,1.54
1762880113.3423328,1.49
1762880113.347956,1.47
1762880113.354238,1.54
1762880113.3606222,1.54
