timestamp,ecg_value
1762879949.1633558,1.52
1762879949.169344,1.58
1762879949.175414,1.62
1762879949.182158,1.64
1762879949.187837,1.63
1762879949.1941812,1.6
1762879949.2005188,1.56
1762879949.206605,1.54
1762879949.212894,1.55
1762879949.2192829,1.57
1762879949.2253702,1.6
1762879949.2318962,1.63
1762879949.2378602,1.64
1762879949.2441778,1.64
1762879949.250368,1.62
1762879949.2565708,1.6
1762879949.2628648,1.59
1762879949.269141,1.63
1762879949.275347,1.66
1762879949.281539,1.69
1762879949.287839,1.69
1762879949.294697,1.7
1762879949.3005471,1.76
1762879949.306612,1.75
1762879949.312862,1.72
1762879949.3192089,1.79
1762879949.3253188,1.82
1762879949.33152,1.8
1762879949.337805,1.78
1762879949.3440378,1.76
1762879949.350281,1.86
1762879949.3566039,1.8
1762879949.3628101,1.71
1762879949.369029,1.67
1762879949.375303,1.61
1762879949.3815029,1.58
1762879949.387808,1.49
1762879949.3940759,1.41
1762879949.400196,1.45
1762879949.406639,1.45
1762879949.4128509,1.42
1762879949.420025,1.43
1762879949.42535,1.39
1762879949.4315782,1.43
1762879949.438549,1.41
1762879949.444033,1.34
1762879949.450302,1.44
1762879949.456689,1.47
1762879949.462771,1.42
1762879949.469023,1.45
1762879949.475182,1.42
1762879949.481447,1.45
1762879949.487653,1.48
1762879949.493957,1.42
1762879949.5002189,1.44
1762879949.506591,1.46
1762879949.512675,1.48
1762879949.5190122,1.48
1762879949.525167,1.41
1762879949.531467,1.46
1762879949.537697,1.51
1762879949.543885,1.48
1762879949.5501068,1.52
1762879949.556438,1.51
1762879949.5627441,1.41
1762879949.56897,1.48
1762879949.575246,1.52
1762879949.581467,1.52
1762879949.587766,1.47
1762879949.59394,1.42
1762879949.60019,1.49
1762879949.606428,1.48
1762879949.612684,1.45
1762879949.618925,1.48
1762879949.62518,1.44
1762879949.631474,1.44
1762879949.6376379,1.5
1762879949.6439831,1.47
1762879949.65016,1.46
1762879949.6565208,1.46
1762879949.662722,1.49
1762879949.669009,1.52
1762879949.675151,1.49
1762879949.681411,1.57
1762879949.687797,1.61
1762879949.693954,1.55
1762879949.700146,1.64
1762879949.706536,1.71
1762879949.712671,1.7
1762879949.718976,1.7
1762879949.7252429,1.57
1762879949.731461,1.61
1762879949.737817,1.59
1762879949.744021,1.47
1762879949.750178,1.45
1762879949.7566762,1.38
1762879949.762725,1.4
1762879949.76899,1.49
1762879949.77518,1.41
1762879949.781395,1.38
1762879949.787742,1.4
1762879949.7939289,1.43
1762879949.8001568,1.45
1762879949.806407,1.44
1762879949.812588,1.43
1762879949.81896,1.46
1762879949.825221,1.41
1762879949.8313978,1.44
1762879949.8377512,1.49
1762879949.843918,1.46
1762879949.8501382,1.49
1762879949.856417,1.45
1762879949.862666,1.46
1762879949.868922,1.71
1762879949.875147,2.01
1762879949.881404,2.79
1762879949.887712,3.17
1762879949.894068,3.17
1762879949.900106,3.17
1762879949.9063628,2.26
1762879949.912632,0.7
1762879949.918936,1.3
1762879949.925202,1.8
1762879949.93136,1.45
1762879949.939199,1.32
1762879949.9439201,1.41
1762879949.950104,1.46
1762879949.956522,1.4
1762879949.962708,1.41
1762879949.969217,1.44
1762879949.975195,1.42
1762879949.9814038,1.46
1762879949.987883,1.46
1762879949.9939551,1.45
1762879950.000237,1.49
1762879950.006451,1.49
1762879950.013056,1.47
1762879950.018868,1.51
1762879950.025154,1.52
1762879950.031323,1.52
1762879950.0375838,1.55
1762879950.0438662,1.55
1762879950.050103,1.55
1762879950.056447,1.53
1762879950.0626938,1.57
1762879950.068981,1.66
1762879950.075017,1.63
1762879950.081363,1.64
1762879950.088395,1.71
1762879950.0938518,1.73
1762879950.100018,1.76
1762879950.106457,1.73
1762879950.112614,1.78
1762879950.118829,1.86
1762879950.1251452,1.77
1762879950.1313221,1.81
1762879950.137763,1.87
1762879950.143858,1.79
1762879950.150053,1.78
1762879950.156369,1.76
1762879950.162739,1.71
1762879950.168829,1.69
1762879950.175046,1.59
1762879950.181375,1.53
1762879950.187592,1.51
1762879950.194027,1.49
1762879950.199973,1.49
1762879950.206303,1.44
1762879950.212642,1.4
1762879950.218852,1.44
1762879950.225051,1.41
1762879950.231261,1.45
1762879950.237634,1.47
1762879950.243925,1.4
1762879950.250088,1.45
1762879950.25628,1.49
1762879950.262621,1.46
1762879950.268914,1.47
1762879950.27505,1.44
1762879950.281291,1.48
1762879950.2875378,1.48
1762879950.2937999,1.47
1762879950.299932,1.55
1762879950.3062022,1.52
1762879950.312602,1.44
1762879950.3188689,1.54
1762879950.3251698,1.55
1762879950.331242,1.53
1762879950.337657,1.52
1762879950.343769,1.48
1762879950.349955,1.53
1762879950.356407,1.52
1762879950.362636,1.48
1762879950.368768,1.52
1762879950.375104,1.52
1762879950.3813279,1.52
1762879950.387585,1.53
1762879950.393785,1.48
1762879950.400077,1.53
1762879950.406264,1.56
1762879950.412506,1.52
1762879950.418855,1.52
1762879950.431547,1.51
1762879950.431679,1.51
1762879950.463444,1.53
1762879950.493524,1.51
1762879950.4937322,1.52
1762879950.493883,1.53
1762879950.494049,1.53
1762879950.49421,1.55
1762879950.4943738,1.52
1762879950.494545,1.57
1762879950.4947178,1.67
1762879950.494878,1.64
1762879950.512736,1.68
1762879950.5129092,1.76
1762879950.513056,1.77
1762879950.520823,1.74
1762879950.525144,1.67
1762879950.53158,1.7
1762879950.537663,1.64
1762879950.544357,1.49
1762879950.558987,1.54
1762879950.5591738,1.52
1762879950.562547,1.43
1762879950.571758,1.45
1762879950.57502,1.5
1762879950.581273,1.52
1762879950.587553,1.5
1762879950.593768,1.46
1762879950.599969,1.51
1762879950.6062038,1.48
1762879950.612643,1.45
1762879950.618824,1.53
1762879950.625076,1.53
1762879950.631233,1.53
1762879950.637627,1.57
1762879950.643692,1.54
1762879950.650007,1.53
1762879950.6562612,1.53
1762879950.662474,1.56
1762879950.6688719,1.73
1762879950.67503,1.99
1762879950.681311,2.73
1762879950.687404,3.17
1762879950.693751,3.17
1762879950.700073,3.17
1762879950.706296,2.67
1762879950.712461,0.89
1762879950.7190819,1.21
1762879950.725024,1.89
1762879950.731271,1.63
1762879950.737492,1.36
1762879950.743701,1.46
1762879950.74999,1.57
1762879950.756246,1.49
1762879950.762502,1.45
1762879950.7687838,1.52
1762879950.7750158,1.52
1762879950.7812748,1.51
1762879950.787499,1.54
1762879950.793834,1.51
1762879950.799955,1.5
1762879950.806253,1.56
1762879950.812483,1.6
1762879950.8189828,1.62
1762879950.8250098,1.56
1762879950.831296,1.57
1762879950.8376389,1.63
1762879950.84374,1.63
1762879950.849962,1.69
1762879950.856364,1.66
1762879950.862557,1.64
1762879950.868701,1.75
1762879950.875345,1.73
1762879950.8813262,1.71
1762879950.8876202,1.76
1762879950.8937569,1.83
1762879950.9000828,1.87
1762879950.906334,1.8
1762879950.912734,1.79
1762879950.918916,1.93
1762879950.924948,1.92
1762879950.9313018,1.86
1762879950.937589,1.9
1762879950.9437408,1.87
1762879950.950102,1.92
1762879950.9563022,1.85
1762879950.962402,1.73
1762879950.969716,1.76
1762879950.9765189,1.7
1762879950.9814441,1.63
1762879950.9875042,1.6
1762879950.9937239,1.55
1762879950.999984,1.56
1762879951.0062258,1.56
1762879951.012602,1.52
1762879951.0198379,1.52
1762879951.025079,1.52
1762879951.031425,1.52
1762879951.037787,1.57
1762879951.04372,1.52
1762879951.049949,1.57
1762879951.0562801,1.57
1762879951.062507,1.51
1762879951.068741,1.59
1762879951.074945,1.6
1762879951.0811908,1.58
1762879951.087438,1.6
1762879951.093674,1.58
1762879951.099997,1.65
1762879951.1061609,1.65
1762879951.112663,1.58
1762879951.119195,1.62
1762879951.124953,1.62
1762879951.1312032,1.62
1762879951.137506,1.66
1762879951.1437309,1.6
1762879951.149985,1.64
1762879951.156217,1.67
1762879951.1624231,1.62
1762879951.168708,1.63
1762879951.174957,1.63
1762879951.181331,1.66
1762879951.18765,1.67
1762879951.193897,1.61
1762879951.19995,1.65
1762879951.2062368,1.66
1762879951.212487,1.61
1762879951.220083,1.63
1762879951.224947,1.63
1762879951.231335,1.6
1762879951.2374122,1.63
1762879951.243602,1.64
1762879951.2499352,1.72
1762879951.256305,1.75
1762879951.262491,1.74
1762879951.26877,1.76
1762879951.2749498,1.81
1762879951.281237,1.89
1762879951.287842,1.92
1762879951.293698,1.77
1762879951.3001049,1.79
1762879951.3061671,1.8
1762879951.3124118,1.67
1762879951.3188632,1.62
1762879951.324934,1.6
1762879951.331228,1.57
1762879951.337693,1.59
1762879951.343711,1.57
1762879951.349916,1.59
1762879951.356138,1.61
1762879951.3623471,1.56
1762879951.368736,1.56
1762879951.374901,1.57
1762879951.3811488,1.59
1762879951.387508,1.64
1762879951.393698,1.6
1762879951.399884,1.62
1762879951.406346,1.63
1762879951.412435,1.6
1762879951.4194748,1.64
1762879951.425001,1.62
1762879951.431226,1.6
1762879951.437461,1.71
1762879951.4436858,1.87
1762879951.4499662,2.33
1762879951.4561422,3.15
1762879951.462403,3.17
1762879951.468693,3.17
1762879951.474947,3.17
1762879951.481262,2.36
1762879951.4874492,0.91
1762879951.493608,1.42
1762879951.5001202,1.91
1762879951.506306,1.62
1762879951.512536,1.39
1762879951.518896,1.53
1762879951.5249128,1.59
1762879951.531144,1.54
1762879951.537516,1.55
1762879951.543597,1.54
1762879951.550061,1.57
1762879951.55613,1.6
1762879951.562559,1.56
1762879951.569209,1.59
1762879951.574871,1.56
1762879951.581137,1.57
1762879951.587401,1.64
1762879951.5936372,1.61
1762879951.60005,1.61
1762879951.6062589,1.63
1762879951.6123688,1.61
1762879951.618739,1.69
1762879951.624815,1.7
1762879951.63138,1.65
1762879951.637384,1.71
1762879951.6437628,1.72
1762879951.649869,1.75
1762879951.65612,1.78
1762879951.662455,1.76
1762879951.6686442,1.8
1762879951.674818,1.81
1762879951.681108,1.82
1762879951.687341,1.86
1762879951.6936169,1.82
1762879951.6999612,1.85
1762879951.70637,1.86
1762879951.712374,1.91
1762879951.718994,1.91
1762879951.724889,1.8
1762879951.731325,1.78
1762879951.737492,1.77
1762879951.743553,1.69
1762879951.749843,1.64
1762879951.7561018,1.56
1762879951.7624161,1.56
1762879951.769202,1.58
1762879951.774794,1.52
1762879951.78124,1.46
1762879951.787563,1.47
1762879951.7937632,1.46
1762879951.799745,1.5
1762879951.8060338,1.53
1762879951.812335,1.48
1762879951.818654,1.49
1762879951.8247528,1.48
1762879951.831028,1.49
1762879951.83743,1.51
1762879951.843612,1.45
1762879951.849779,1.48
1762879951.8560529,1.54
1762879951.8623092,1.54
1762879951.868927,1.55
1762879951.874753,1.51
1762879951.881023,1.49
1762879951.887319,1.55
1762879951.893596,1.52
1762879951.8999581,1.54
1762879951.906165,1.56
1762879951.9123242,1.49
1762879951.9192,1.49
1762879951.9247732,1.52
1762879951.931265,1.54
1762879951.938066,1.53
1762879951.9436002,1.48
1762879951.9497468,1.51
1762879951.956068,1.51
1762879951.962378,1.5
1762879951.969677,1.53
1762879951.9746938,1.52
1762879951.981023,1.49
1762879951.987701,1.52
1762879952.021576,1.49
1762879952.021889,1.5
1762879952.022101,1.52
1762879952.02235,1.47
1762879952.022772,1.47
1762879952.052643,1.48
1762879952.0527842,1.49
1762879952.052902,1.53
1762879952.053015,1.56
1762879952.05358,1.61
1762879952.065977,1.6
1762879952.066373,1.55
1762879952.069122,1.74
1762879952.074781,1.8
1762879952.0809228,1.67
1762879952.087185,1.6
1762879952.093489,1.65
1762879952.0997398,1.6
1762879952.105966,1.5
1762879952.1121762,1.44
1762879952.11854,1.47
1762879952.124712,1.41
1762879952.1309571,1.39
1762879952.137207,1.43
1762879952.1434822,1.4
1762879952.149698,1.42
1762879952.1560729,1.44
1762879952.162185,1.42
1762879952.1685162,1.44
1762879952.1746151,1.43
1762879952.181031,1.42
1762879952.187209,1.47
1762879952.193472,1.44
1762879952.19974,1.46
1762879952.2059,1.49
1762879952.212189,1.45
1762879952.2185931,1.46
1762879952.2247522,1.49
1762879952.2310011,1.59
1762879952.237553,1.89
1762879952.2438972,2.58
1762879952.249794,3.17
1762879952.2560818,3.17
1762879952.262204,3.17
1762879952.268476,2.67
1762879952.2746649,0.71
1762879952.281046,1.06
1762879952.287426,1.91
1762879952.29359,1.54
1762879952.2998662,1.22
1762879952.306196,1.43
1762879952.312217,1.44
1762879952.318526,1.37
1762879952.324718,1.39
1762879952.330983,1.41
1762879952.337216,1.43
1762879952.343504,1.39
1762879952.349712,1.42
1762879952.35609,1.48
1762879952.362172,1.46
1762879952.368618,1.48
1762879952.374697,1.47
1762879952.381042,1.44
1762879952.387188,1.49
1762879952.3935292,1.5
1762879952.399725,1.54
1762879952.4060428,1.57
1762879952.412172,1.54
1762879952.418438,1.56
1762879952.4245918,1.57
1762879952.430927,1.58
1762879952.437236,1.66
1762879952.4434502,1.65
1762879952.4497678,1.66
1762879952.45588,1.72
1762879952.4621818,1.73
1762879952.468553,1.72
1762879952.474795,1.75
1762879952.480938,1.77
1762879952.4872792,1.81
1762879952.493417,1.8
1762879952.499756,1.84
1762879952.5059268,1.85
1762879952.51214,1.76
1762879952.518496,1.77
1762879952.52458,1.74
1762879952.530833,1.65
1762879952.537133,1.63
1762879952.5433679,1.54
1762879952.549603,1.51
1762879952.555856,1.56
1762879952.562104,1.5
1762879952.5683908,1.49
1762879952.574646,1.48
1762879952.580826,1.44
1762879952.5870621,1.48
1762879952.593398,1.47
1762879952.599605,1.49
1762879952.605793,1.53
1762879952.612053,1.49
1762879952.6190631,1.51
1762879952.6245692,1.52
1762879952.63078,1.53
1762879952.637027,1.54
1762879952.64381,1.53
1762879952.651053,1.57
1762879952.655767,1.61
1762879952.6620312,1.56
1762879952.668849,1.59
1762879952.674496,1.63
1762879952.681549,1.6
1762879952.6871529,1.65
1762879952.694834,1.65
1762879952.7030551,1.62
1762879952.705937,1.67
1762879952.7121542,1.64
1762879952.720261,1.63
1762879952.724513,1.64
1762879952.730775,1.65
1762879952.7373939,1.7
1762879952.744664,1.66
1762879952.7532978,1.65
1762879952.762151,1.7
1762879952.762384,1.68
1762879952.771133,1.72
1762879952.774726,1.72
1762879952.787203,1.67
1762879952.78736,1.71
1762879952.7940228,1.73
1762879952.804029,1.73
1762879952.8063202,1.74
1762879952.8122199,1.73
1762879952.826414,1.8
1762879952.8266492,1.86
1762879952.830801,1.83
1762879952.837137,1.87
1762879952.8435972,1.94
1762879952.849591,2.0
1762879952.8558369,2.02
1762879952.8621209,1.91
1762879952.868953,1.91
1762879952.874542,1.9
1762879952.8807948,1.74
1762879952.887085,1.76
1762879952.893928,1.78
1762879952.8994958,1.74
1762879952.905813,1.72
1762879952.9120882,1.71
1762879952.9183831,1.75
1762879952.924545,1.71
1762879952.930778,1.71
1762879952.937223,1.79
1762879952.943327,1.75
1762879952.9495392,1.74
1762879952.9558349,1.8
1762879952.962389,1.78
1762879952.96833,1.77
1762879952.974504,1.77
1762879952.980855,1.83
1762879952.987067,1.88
1762879952.9933991,1.81
1762879953.000437,1.8
1762879953.005756,1.93
1762879953.0121658,2.12
1762879953.018801,2.73
1762879953.024606,3.17
1762879953.030784,3.17
1762879953.0370529,3.18
1762879953.043345,3.17
1762879953.04951,2.44
1762879953.055796,1.23
1762879953.062041,1.61
1762879953.068869,2.1
1762879953.074618,1.83
1762879953.0808342,1.64
1762879953.087033,1.79
1762879953.093329,1.81
1762879953.099623,1.72
1762879953.1061509,1.73
1762879953.112065,1.8
1762879953.118378,1.83
1762879953.1244988,1.78
1762879953.130806,1.76
1762879953.1369731,1.83
1762879953.143316,1.77
1762879953.1495621,1.76
1762879953.15576,1.89
1762879953.162068,1.83
1762879953.16832,1.83
1762879953.174471,1.84
1762879953.180749,1.79
1762879953.187093,1.89
1762879953.193269,1.92
1762879953.199522,1.88
1762879953.205747,1.94
1762879953.2120352,1.93
1762879953.2183151,1.96
1762879953.224514,1.98
1762879953.230827,1.95
1762879953.2370298,2.03
1762879953.2433238,2.06
1762879953.25034,2.05
1762879953.255764,2.08
1762879953.2619882,2.05
1762879953.268285,2.09
1762879953.27444,2.12
1762879953.28083,2.08
1762879953.287117,2.08
1762879953.293278,2.03
1762879953.299627,1.95
1762879953.3057559,1.97
1762879953.311959,1.91
1762879953.318274,1.83
1762879953.324436,1.8
1762879953.330823,1.73
1762879953.33702,1.75
1762879953.343231,1.69
1762879953.3497012,1.68
1762879953.3558779,1.77
1762879953.3620539,1.71
1762879953.368314,1.69
1762879953.3745039,1.69
1762879953.380866,1.69
1762879953.387071,1.74
1762879953.393287,1.69
1762879953.399851,1.67
1762879953.4058099,1.72
1762879953.412054,1.67
1762879953.4185128,1.72
1762879953.4246242,1.74
1762879953.430772,1.69
1762879953.4371068,1.71
1762879953.4432561,1.71
1762879953.449589,1.71
1762879953.455903,1.73
1762879953.461972,1.7
1762879953.468269,1.73
1762879953.4745312,1.72
1762879953.4808,1.65
1762879953.489156,1.7
1762879953.5073159,1.67
1762879953.513113,1.66
1762879953.513387,1.67
1762879953.513525,1.63
1762879953.519031,1.65
1762879953.544981,1.69
1762879953.545341,1.64
1762879953.545474,1.61
1762879953.549047,1.61
1762879953.5603468,1.64
1762879953.5604968,1.66
1762879953.5619688,1.59
1762879953.570196,1.58
1762879953.576619,1.63
1762879953.5807009,1.73
1762879953.586907,1.74
1762879953.593154,1.7
1762879953.599484,1.78
1762879953.605679,1.87
1762879953.6120021,1.75
1762879953.618144,1.7
1762879953.624324,1.81
1762879953.630615,1.72
1762879953.636966,1.55
1762879953.6432798,1.51
1762879953.649503,1.52
1762879953.6556318,1.52
1762879953.6618612,1.45
1762879953.6683168,1.49
1762879953.6745,1.54
1762879953.680653,1.47
1762879953.687027,1.51
1762879953.693158,1.51
1762879953.699423,1.46
1762879953.705628,1.49
1762879953.7119071,1.5
1762879953.718157,1.48
1762879953.724322,1.5
1762879953.730767,1.46
1762879953.7369149,1.49
1762879953.743233,1.48
1762879953.749453,1.49
1762879953.7556548,1.54
1762879953.761857,1.56
1762879953.768456,1.74
1762879953.774366,2.32
1762879953.78068,3.15
1762879953.786967,3.17
1762879953.793174,3.17
1762879953.799417,3.15
1762879953.8057501,1.48
1762879953.811887,0.75
1762879953.818151,1.58
1762879953.8243022,1.67
1762879953.830774,1.26
1762879953.836894,1.28
1762879953.843209,1.4
1762879953.849387,1.35
1762879953.855619,1.32
1762879953.86193,1.31
1762879953.868257,1.31
1762879953.8743098,1.34
1762879953.880726,1.32
1762879953.886948,1.34
1762879953.893184,1.34
1762879953.8994298,1.32
1762879953.905697,1.32
1762879953.911859,1.34
1762879953.9185762,1.39
1762879953.924396,1.38
1762879953.930624,1.36
1762879953.936901,1.39
1762879953.943171,1.4
1762879953.949339,1.43
1762879953.955628,1.45
1762879953.961851,1.37
1762879953.9681542,1.43
1762879953.9742908,1.48
1762879953.9808,1.46
1762879953.986884,1.52
1762879953.993249,1.53
1762879953.999403,1.51
1762879954.005588,1.55
1762879954.011909,1.53
1762879954.018272,1.52
1762879954.024322,1.57
1762879954.030645,1.52
1762879954.0368671,1.53
1762879954.043189,1.54
1762879954.049346,1.48
1762879954.055611,1.44
1762879954.061889,1.33
1762879954.068105,1.32
1762879954.074451,1.29
1762879954.080609,1.14
1762879954.086863,1.14
1762879954.093133,1.17
1762879954.09933,1.11
1762879954.105769,1.11
1762879954.111704,1.07
1762879954.1180558,1.07
1762879954.124187,1.07
1762879954.130656,1.07
1762879954.136841,1.12
1762879954.143033,1.06
1762879954.1493099,1.04
1762879954.155467,1.12
1762879954.161721,1.06
1762879954.1680582,1.05
1762879954.174245,1.11
1762879954.180593,1.08
1762879954.18686,1.1
1762879954.193065,1.1
1762879954.1993442,1.09
1762879954.205558,1.12
1762879954.2117782,1.06
1762879954.218153,1.11
1762879954.224324,1.15
1762879954.23069,1.09
1762879954.236842,1.08
1762879954.243083,1.08
1762879954.2492979,1.09
1762879954.255523,1.12
1762879954.2618072,1.09
1762879954.2682,1.09
1762879954.2743108,1.08
1762879954.280761,1.01
1762879954.2868512,1.08
1762879954.293204,1.13
1762879954.299317,1.07
1762879954.305533,1.09
1762879954.3120031,1.07
1762879954.318846,1.15
1762879954.324275,1.23
1762879954.330621,1.17
1762879954.336912,1.2
1762879954.3431082,1.33
1762879954.34926,1.3
1762879954.355617,1.27
1762879954.36188,1.22
1762879954.36819,1.27
1762879954.3741992,1.21
1762879954.38063,1.05
1762879954.386817,1.05
1762879954.393137,1.06
1762879954.399263,1.0
1762879954.40559,1.02
1762879954.411774,1.02
1762879954.4180338,1.04
1762879954.4241788,1.05
1762879954.430579,1.02
1762879954.436855,1.08
1762879954.442986,1.08
1762879954.449288,1.03
1762879954.455486,1.08
1762879954.4617422,1.05
1762879954.4683928,1.06
1762879954.4746509,1.11
1762879954.480629,1.07
1762879954.48678,1.13
1762879954.492979,1.13
1762879954.4992268,1.1
1762879954.5053802,1.24
1762879954.511619,1.41
1762879954.517924,2.01
1762879954.524147,2.98
1762879954.5305338,3.16
1762879954.5367281,3.17
1762879954.542913,2.64
1762879954.549161,0.54
1762879954.555423,0.69
1762879954.561662,1.48
1762879954.567866,1.26
1762879954.5741708,0.97
1762879954.5805361,1.02
1762879954.586667,1.16
1762879954.592936,1.12
1762879954.5991979,1.05
1762879954.60538,1.11
1762879954.611704,1.13
1762879954.618009,1.13
1762879954.6241438,1.16
1762879954.63044,1.13
1762879954.636668,1.17
1762879954.642957,1.2
1762879954.649272,1.2
1762879954.655343,1.24
1762879954.661641,1.2
1762879954.667816,1.23
1762879954.674082,1.27
1762879954.680416,1.26
1762879954.686632,1.26
1762879954.692885,1.28
1762879954.699251,1.33
1762879954.70543,1.38
1762879954.711679,1.3
1762879954.717866,1.38
1762879954.724174,1.52
1762879954.730453,1.45
1762879954.7366478,1.46
1762879954.743129,1.5
1762879954.749221,1.48
1762879954.755538,1.53
1762879954.761605,1.55
1762879954.767864,1.57
1762879954.774134,1.59
1762879954.780419,1.56
1762879954.7867541,1.58
1762879954.7928839,1.52
1762879954.7994711,1.44
1762879954.805326,1.44
1762879954.811625,1.37
1762879954.82411,1.33
1762879954.8242419,1.3
1762879954.8451788,1.24
1762879954.8453739,1.26
1762879954.849105,1.24
1762879954.8505778,1.21
1762879954.8661811,1.27
1762879954.866383,1.25
1762879954.8720891,1.24
1762879954.879649,1.28
1762879954.885045,1.23
1762879954.8867,1.24
1762879954.895272,1.28
1762879954.899293,1.28
1762879954.9054751,1.31
1762879954.9117062,1.3
1762879954.918842,1.28
1762879954.9242449,1.33
1762879954.9307039,1.36
1762879954.936814,1.38
1762879954.942938,1.33
1762879954.949555,1.35
1762879954.9553752,1.42
1762879954.961716,1.38
1762879954.968668,1.37
1762879954.974118,1.4
1762879954.980427,1.37
1762879954.986667,1.4
1762879954.992974,1.39
1762879954.99927,1.38
1762879955.005383,1.4
1762879955.011647,1.38
1762879955.017901,1.4
1762879955.024081,1.43
1762879955.030391,1.38
1762879955.0366468,1.42
1762879955.0430489,1.44
1762879955.049153,1.36
1762879955.0553222,1.41
1762879955.061536,1.45
1762879955.067816,1.43
1762879955.0740569,1.43
1762879955.0804548,1.41
1762879955.086584,1.44
1762879955.092757,1.49
1762879955.09952,1.53
1762879955.105328,1.56
1762879955.111552,1.54
1762879955.117772,1.61
1762879955.1239822,1.74
1762879955.130602,1.69
1762879955.1366029,1.62
1762879955.142886,1.62
1762879955.149163,1.61
1762879955.1554618,1.57
1762879955.161664,1.46
1762879955.167843,1.43
1762879955.174082,1.46
1762879955.1804411,1.43
1762879955.186631,1.42
1762879955.192886,1.41
1762879955.199424,1.41
1762879955.2054532,1.48
1762879955.2116091,1.46
1762879955.217924,1.42
1762879955.2240582,1.47
1762879955.230616,1.46
1762879955.236607,1.47
1762879955.242899,1.48
1762879955.249114,1.45
1762879955.255357,1.52
1762879955.261581,1.51
1762879955.267829,1.48
1762879955.2740538,1.53
1762879955.2806,1.56
1762879955.286622,1.72
1762879955.292793,2.07
1762879955.2991621,2.87
1762879955.305289,3.17
1762879955.311499,3.17
1762879955.3178072,3.17
1762879955.324055,2.52
1762879955.3305779,0.8
1762879955.336593,1.24
1762879955.342928,1.88
1762879955.3490932,1.58
1762879955.3554401,1.35
1762879955.36162,1.44
1762879955.3678389,1.5
1762879955.374027,1.51
1762879955.380329,1.45
1762879955.386582,1.46
1762879955.3929138,1.49
1762879955.399149,1.5
1762879955.4056041,1.52
1762879955.4116359,1.51
1762879955.418019,1.52
1762879955.424126,1.52
1762879955.4304209,1.52
1762879955.436584,1.6
1762879955.442889,1.59
1762879955.4492888,1.53
1762879955.4555361,1.58
1762879955.461576,1.64
1762879955.4678242,1.65
1762879955.473967,1.66
1762879955.480497,1.65
1762879955.486607,1.65
1762879955.492966,1.69
1762879955.499398,1.73
1762879955.505336,1.79
1762879955.5115771,1.78
1762879955.517879,1.79
1762879955.524066,1.85
1762879955.530373,1.82
1762879955.536639,1.87
1762879955.543,1.9
1762879955.5496352,1.81
1762879955.555239,1.84
1762879955.561645,1.87
1762879955.5678039,1.87
1762879955.574031,1.82
1762879955.5804958,1.71
1762879955.586595,1.68
1762879955.593164,1.61
1762879955.599076,1.56
1762879955.6054988,1.58
1762879955.611549,1.55
1762879955.617841,1.5
1762879955.623997,1.48
1762879955.6304471,1.47
1762879955.6366029,1.48
1762879955.643253,1.49
1762879955.649184,1.47
1762879955.655221,1.5
1762879955.661522,1.51
1762879955.667915,1.51
1762879955.673986,1.5
1762879955.680325,1.5
1762879955.6865852,1.53
1762879955.692777,1.53
1762879955.699061,1.49
1762879955.705206,1.53
1762879955.711505,1.55
1762879955.717799,1.54
1762879955.724055,1.57
1762879955.730612,1.55
1762879955.73651,1.54
1762879955.7430122,1.55
1762879955.749977,1.57
1762879955.755241,1.61
1762879955.7614772,1.56
1762879955.7677288,1.54
1762879955.7739909,1.59
1762879955.780407,1.55
1762879955.786577,1.56
1762879955.793059,1.59
1762879955.799365,1.54
1762879955.8053,1.57
1762879955.8115299,1.57
1762879955.817746,1.54
1762879955.823919,1.55
1762879955.830246,1.53
1762879955.83669,1.53
1762879955.84284,1.59
1762879955.8490171,1.58
1762879955.855506,1.59
1762879955.8615701,1.56
1762879955.867745,1.55
1762879955.8740292,1.59
1762879955.8802712,1.53
1762879955.886487,1.54
1762879955.892765,1.58
1762879955.899507,1.55
1762879955.905258,1.57
1762879955.911514,1.57
1762879955.917727,1.57
1762879955.9239511,1.6
1762879955.930382,1.63
1762879955.9364321,1.69
1762879955.942708,1.69
1762879955.949485,1.68
1762879955.9551969,1.81
1762879955.961461,1.8
1762879955.967723,1.76
1762879955.973984,1.71
1762879955.980368,1.69
1762879955.986439,1.71
1762879955.99282,1.63
1762879955.999959,1.52
1762879956.005427,1.55
1762879956.011588,1.52
1762879956.0177228,1.52
1762879956.023982,1.55
1762879956.0302348,1.52
1762879956.0364969,1.54
1762879956.0427651,1.53
1762879956.0497081,1.49
1762879956.0552251,1.53
1762879956.061516,1.55
1762879956.0676758,1.53
1762879956.073935,1.57
1762879956.080161,1.55
1762879956.0865479,1.56
1762879956.092927,1.56
1762879956.0994859,1.53
1762879956.1051571,1.6
1762879956.111579,1.62
1762879956.117934,1.67
1762879956.123905,1.93
1762879956.130465,2.56
1762879956.136472,3.17
1762879956.142751,3.17
1762879956.148983,3.17
1762879956.155168,3.09
1762879956.1614249,1.26
1762879956.167752,0.91
1762879956.173863,1.81
1762879956.1801758,1.79
1762879956.18649,1.41
1762879956.1926851,1.44
1762879956.198947,1.54
1762879956.2152221,1.55
1762879956.227381,1.49
1762879956.227634,1.49
1762879956.23333,1.56
1762879956.2546618,1.53
1762879956.254891,1.54
1762879956.254981,1.56
1762879956.25523,1.47
1762879956.255391,1.56
1762879956.27349,1.62
1762879956.273916,1.58
1762879956.274074,1.57
1762879956.280163,1.56
1762879956.286417,1.62
1762879956.29278,1.63
1762879956.2992709,1.61
1762879956.3051689,1.67
1762879956.3113751,1.66
1762879956.317634,1.67
1762879956.324057,1.71
1762879956.330574,1.71
1762879956.336459,1.74
1762879956.342638,1.8
1762879956.348929,1.77
1762879956.355103,1.8
1762879956.361394,1.84
1762879956.367564,1.87
1762879956.373898,1.88
1762879956.3806,1.82
1762879956.386461,1.87
1762879956.392673,1.89
1762879956.398965,1.84
1762879956.405209,1.84
1762879956.411467,1.76
1762879956.4176068,1.7
1762879956.423879,1.68
1762879956.430181,1.6
1762879956.4363809,1.55
1762879956.442645,1.52
1762879956.4490051,1.51
1762879956.45514,1.51
1762879956.461399,1.45
1762879956.467577,1.44
1762879956.473846,1.51
1762879956.480109,1.46
1762879956.486324,1.44
1762879956.4926138,1.47
1762879956.499233,1.49
1762879956.505136,1.5
1762879956.511452,1.45
1762879956.5176241,1.46
1762879956.5238771,1.53
1762879956.530154,1.51
1762879956.536372,1.52
1762879956.542678,1.52
1762879956.549908,1.48
1762879956.5550468,1.54
1762879956.56131,1.54
1762879956.567984,1.53
1762879956.573833,1.54
1762879956.580096,1.51
1762879956.58632,1.5
1762879956.592617,1.58
1762879956.599054,1.56
1762879956.605093,1.56
1762879956.6113439,1.54
1762879956.617551,1.5
1762879956.6238499,1.56
1762879956.6301079,1.55
1762879956.636302,1.53
1762879956.642731,1.53
1762879956.648934,1.51
1762879956.655116,1.53
1762879956.661319,1.51
1762879956.6675289,1.52
1762879956.673824,1.54
1762879956.680043,1.51
1762879956.6863308,1.55
1762879956.692769,1.56
1762879956.698943,1.51
1762879956.705291,1.53
1762879956.7114081,1.51
1762879956.7177339,1.5
1762879956.723861,1.56
1762879956.730474,1.5
1762879956.736536,1.51
1762879956.742599,1.56
1762879956.748922,1.52
1762879956.755083,1.52
1762879956.7612789,1.55
1762879956.76754,1.61
1762879956.773778,1.68
1762879956.780111,1.63
1762879956.786308,1.67
1762879956.792524,1.76
1762879956.799157,1.75
1762879956.805186,1.71
1762879956.811276,1.65
1762879956.817475,1.69
1762879956.8241868,1.63
1762879956.830057,1.51
1762879956.836332,1.52
1762879956.842587,1.52
1762879956.848947,1.48
1762879956.8551118,1.48
1762879956.861482,1.48
1762879956.867499,1.51
1762879956.8738308,1.51
1762879956.8803189,1.46
1762879956.8863099,1.49
1762879956.892546,1.52
1762879956.898893,1.49
1762879956.905035,1.52
1762879956.911326,1.49
1762879956.9175239,1.52
1762879956.923723,1.53
1762879956.930042,1.51
1762879956.9363468,1.57
1762879956.94256,1.57
1762879956.949228,1.52
1762879956.955138,1.67
1762879956.9613152,1.98
1762879956.967561,2.63
1762879956.973752,3.17
1762879956.980035,3.17
1762879956.986284,3.17
1762879956.9926898,2.84
1762879956.999069,0.99
1762879957.004979,1.1
1762879957.01121,1.84
1762879957.017405,1.61
1762879957.0237272,1.33
1762879957.030015,1.44
1762879957.036237,1.55
1762879957.042496,1.47
1762879957.0487318,1.42
1762879957.054979,1.51
1762879957.0611892,1.5
1762879957.067553,1.47
1762879957.073726,1.5
1762879957.0801768,1.5
1762879957.086251,1.52
1762879957.092397,1.53
1762879957.098721,1.51
1762879957.104945,1.55
1762879957.111192,1.56
1762879957.1174521,1.53
1762879957.1240199,1.55
1762879957.130087,1.61
1762879957.136191,1.63
1762879957.142465,1.64
1762879957.1488361,1.59
1762879957.154957,1.65
1762879957.1611898,1.71
1762879957.167547,1.71
1762879957.1737988,1.72
1762879957.180028,1.73
1762879957.186332,1.78
1762879957.1925151,1.83
1762879957.198774,1.78
1762879957.204928,1.82
1762879957.211272,1.86
1762879957.21749,1.83
1762879957.22402,1.85
1762879957.2299361,1.84
1762879957.23617,1.79
1762879957.242508,1.78
1762879957.248734,1.75
1762879957.254912,1.71
1762879957.26124,1.59
1762879957.267394,1.54
1762879957.273809,1.56
1762879957.280114,1.47
1762879957.28618,1.44
1762879957.292602,1.47
1762879957.2987142,1.47
1762879957.304928,1.47
1762879957.3112419,1.4
1762879957.317447,1.43
1762879957.3235588,1.51
1762879957.3300931,1.45
1762879957.336195,1.42
1762879957.342381,1.45
1762879957.348711,1.46
1762879957.354858,1.46
1762879957.361166,1.46
1762879957.367327,1.48
1762879957.373869,1.52
1762879957.380107,1.47
1762879957.3862011,1.47
1762879957.3925152,1.51
1762879957.398745,1.49
1762879957.40492,1.52
1762879957.411134,1.52
1762879957.417303,1.5
1762879957.42431,1.56
1762879957.4298408,1.54
1762879957.4361632,1.52
1762879957.4423769,1.54
1762879957.448734,1.53
1762879957.454931,1.53
1762879957.461229,1.52
1762879957.4673338,1.53
1762879957.473611,1.53
1762879957.479926,1.48
1762879957.4861429,1.52
1762879957.492469,1.55
1762879957.498667,1.48
1762879957.50495,1.51
1762879957.5110989,1.56
1762879957.51728,1.5
1762879957.5236669,1.49
1762879957.529875,1.51
1762879957.536171,1.54
1762879957.542472,1.54
1762879957.5486112,1.51
1762879957.5773492,1.55
1762879957.5775502,1.52
1762879957.585813,1.5
1762879957.587144,1.56
1762879957.598271,1.52
1762879957.604766,1.52
1762879957.605029,1.61
1762879957.605224,1.62
1762879957.605414,1.64
1762879957.612343,1.67
1762879957.6183639,1.72
1762879957.623771,1.76
1762879957.630103,1.7
1762879957.63776,1.66
1762879957.659544,1.69
1762879957.659768,1.59
1762879957.663487,1.52
1762879957.6647859,1.49
1762879957.66733,1.5
1762879957.673603,1.52
1762879957.681503,1.48
1762879957.686167,1.49
1762879957.692456,1.47
1762879957.698805,1.45
1762879957.704833,1.52
1762879957.7111292,1.52
1762879957.717367,1.49
1762879957.724021,1.5
1762879957.7298949,1.47
1762879957.7361689,1.53
1762879957.742441,1.59
1762879957.748687,1.52
1762879957.7548401,1.52
1762879957.7611032,1.56
1762879957.7673652,1.55
1762879957.773637,1.67
1762879957.7799401,1.82
1762879957.786082,2.36
1762879957.792423,3.16
1762879957.7986329,3.17
1762879957.80482,3.17
1762879957.811101,3.16
1762879957.817332,1.76
1762879957.823715,0.86
1762879957.829877,1.55
1762879957.836159,1.75
1762879957.842358,1.49
1762879957.848623,1.38
1762879957.8547368,1.49
1762879957.861328,1.45
1762879957.867234,1.46
1762879957.873688,1.51
1762879957.880497,1.47
1762879957.886086,1.47
1762879957.892289,1.51
1762879957.8985548,1.49
1762879957.904892,1.52
1762879957.911127,1.53
1762879957.917257,1.5
1762879957.9236732,1.55
1762879957.930349,1.54
1762879957.936079,1.53
1762879957.942474,1.56
1762879957.9486878,1.57
1762879957.954814,1.6
1762879957.961108,1.56
1762879957.967278,1.59
1762879957.997557,1.69
1762879957.9977431,1.66
1762879957.99806,1.64
1762879957.998163,1.71
1762879957.998641,1.74
1762879958.004948,1.77
1762879958.011266,1.77
1762879958.017328,1.78
1762879958.023645,1.82
1762879958.029865,1.79
1762879958.036075,1.79
1762879958.04233,1.84
1762879958.048686,1.83
1762879958.054768,1.82
1762879958.061027,1.76
1762879958.06729,1.71
1762879958.0736341,1.7
1762879958.079767,1.6
1762879958.086028,1.55
1762879958.092335,1.51
1762879958.098618,1.45
1762879958.104743,1.47
1762879958.1112168,1.45
1762879958.117255,1.43
1762879958.1235032,1.41
1762879958.129867,1.4
1762879958.136024,1.39
1762879958.1422908,1.4
1762879958.1485069,1.41
1762879958.1547651,1.43
1762879958.161298,1.39
1762879958.1673129,1.41
1762879958.173598,1.48
1762879958.179824,1.44
1762879958.1860428,1.43
1762879958.192339,1.45
1762879958.198574,1.45
1762879958.204896,1.5
1762879958.21095,1.49
1762879958.217249,1.47
1762879958.223485,1.53
1762879958.229825,1.46
1762879958.236068,1.48
1762879958.242295,1.54
1762879958.248516,1.46
1762879958.2549179,1.5
1762879958.2611809,1.52
1762879958.2672992,1.51
1762879958.273509,1.52
1762879958.2797801,1.49
1762879958.286059,1.49
1762879958.292226,1.49
1762879958.2985659,1.48
1762879958.304731,1.5
1762879958.311723,1.49
1762879958.317288,1.49
1762879958.323483,1.51
1762879958.329827,1.48
1762879958.3361049,1.47
1762879958.3421922,1.51
1762879958.348593,1.48
1762879958.3548381,1.48
1762879958.3610082,1.49
1762879958.3673441,1.52
1762879958.373496,1.53
1762879958.3797052,1.45
1762879958.385947,1.49
1762879958.392277,1.59
1762879958.398475,1.61
1762879958.4046998,1.63
1762879958.4110348,1.61
1762879958.4172869,1.66
1762879958.4234612,1.73
1762879958.429805,1.71
1762879958.43597,1.66
1762879958.442251,1.68
1762879958.4484448,1.62
1762879958.454742,1.5
1762879958.461063,1.5
1762879958.4673579,1.49
1762879958.4734132,1.48
1762879958.479743,1.42
1762879958.486128,1.44
1762879958.4922109,1.49
1762879958.49849,1.45
1762879958.5047731,1.44
1762879958.511001,1.46
1762879958.517292,1.49
1762879958.5234199,1.5
1762879958.529758,1.42
1762879958.5360188,1.46
1762879958.5422919,1.56
1762879958.548482,1.52
1762879958.5547478,1.47
1762879958.5609941,1.5
1762879958.567323,1.55
1762879958.573417,1.55
1762879958.579767,1.64
1762879958.586071,1.97
1762879958.592365,2.66
1762879958.598481,3.17
1762879958.604929,3.17
1762879958.610928,3.17
1762879958.617315,2.97
1762879958.6235058,1.1
1762879958.6299899,0.94
1762879958.635961,1.76
1762879958.642263,1.7
1762879958.6485262,1.31
1762879958.654737,1.41
1762879958.660931,1.52
1762879958.667288,1.43
1762879958.673447,1.42
1762879958.680823,1.44
1762879958.6860008,1.49
1762879958.6922,1.49
1762879958.698412,1.45
1762879958.70475,1.51
1762879958.710906,1.5
1762879958.7171168,1.5
1762879958.723371,1.53
1762879958.729676,1.53
1762879958.735949,1.55
1762879958.7425401,1.53
1762879958.7484438,1.54
1762879958.7546299,1.6
1762879958.760928,1.59
1762879958.76717,1.57
1762879958.773485,1.64
1762879958.779933,1.66
1762879958.7858958,1.67
1762879958.792214,1.69
1762879958.798454,1.68
1762879958.804689,1.74
1762879958.810902,1.79
1762879958.817116,1.76
1762879958.823359,1.81
1762879958.829674,1.84
1762879958.835975,1.81
1762879958.842229,1.85
1762879958.8484328,1.84
1762879958.8547368,1.84
1762879958.860895,1.82
1762879958.867129,1.75
1762879958.873427,1.7
1762879958.879715,1.63
1762879958.8859038,1.59
1762879958.892149,1.56
1762879958.898349,1.49
1762879958.904694,1.48
1762879958.911005,1.47
1762879958.9172149,1.39
1762879958.9233549,1.41
1762879958.9296901,1.47
1762879958.9358,1.44
1762879958.9421802,1.44
1762879958.948423,1.4
1762879958.9546509,1.43
1762879958.9609,1.43
1762879958.967177,1.4
1762879958.973402,1.47
1762879958.9796531,1.46
1762879958.994124,1.43
1762879959.031615,1.47
1762879959.0460858,1.44
1762879959.04638,1.44
1762879959.0465422,1.48
1762879959.0466182,1.49
1762879959.046784,1.52
1762879959.046842,1.47
1762879959.046898,1.48
1762879959.046953,1.53
1762879959.0483148,1.5
1762879959.054591,1.51
1762879959.062376,1.52
1762879959.0670831,1.48
1762879959.073314,1.5
1762879959.079674,1.52
1762879959.085811,1.48
1762879959.092215,1.51
1762879959.098243,1.51
1762879959.1045601,1.5
1762879959.110878,1.49
1762879959.117043,1.47
1762879959.123289,1.5
1762879959.129644,1.48
1762879959.135904,1.48
1762879959.1423051,1.51
1762879959.1484659,1.5
1762879959.15461,1.48
1762879959.160893,1.47
1762879959.167051,1.51
1762879959.173322,1.54
1762879959.1795661,1.52
1762879959.185764,1.5
1762879959.192048,1.53
1762879959.1982772,1.49
1762879959.20454,1.48
1762879959.210804,1.52
1762879959.21701,1.52
1762879959.223352,1.53
1762879959.229581,1.53
1762879959.235903,1.56
1762879959.242042,1.67
1762879959.248325,1.65
1762879959.254604,1.63
1762879959.260789,1.75
1762879959.267043,1.77
1762879959.273397,1.7
1762879959.2796428,1.61
1762879959.2858,1.65
1762879959.292227,1.61
1762879959.298379,1.5
1762879959.304752,1.51
1762879959.310998,1.51
1762879959.317145,1.46
1762879959.32338,1.49
1762879959.329592,1.49
1762879959.335932,1.47
1762879959.342048,1.5
1762879959.348356,1.48
1762879959.354557,1.48
1762879959.3607512,1.5
1762879959.367021,1.49
1762879959.373369,1.52
1762879959.3796759,1.48
1762879959.385867,1.5
1762879959.392053,1.55
1762879959.398218,1.53
1762879959.404511,1.53
1762879959.410769,1.54
1762879959.416987,1.58
1762879959.423263,1.81
1762879959.429523,2.26
1762879959.4357471,3.09
1762879959.4420621,3.17
1762879959.448235,3.17
1762879959.454491,3.17
1762879959.460723,2.0
1762879959.466982,0.72
1762879959.473218,1.49
1762879959.479574,1.86
1762879959.4857879,1.44
1762879959.492058,1.34
1762879959.498315,1.52
1762879959.504503,1.52
1762879959.5108721,1.43
1762879959.516995,1.43
1762879959.523254,1.51
1762879959.529681,1.5
1762879959.535736,1.48
1762879959.541972,1.5
1762879959.5481641,1.49
1762879959.554524,1.52
1762879959.560735,1.56
1762879959.5671968,1.54
1762879959.5732028,1.55
1762879959.5794718,1.55
1762879959.5858371,1.57
1762879959.592057,1.58
1762879959.598372,1.57
1762879959.604406,1.6
1762879959.610868,1.63
1762879959.616992,1.63
1762879959.623189,1.66
1762879959.6295218,1.69
1762879959.63588,1.7
1762879959.642139,1.75
1762879959.6481972,1.75
1762879959.654638,1.79
1762879959.660741,1.82
1762879959.667024,1.8
1762879959.673214,1.85
1762879959.679635,1.86
1762879959.685823,1.81
1762879959.6920269,1.87
1762879959.6981819,1.85
1762879959.7045062,1.82
1762879959.710809,1.79
1762879959.716958,1.69
1762879959.723205,1.62
1762879959.729523,1.58
1762879959.735716,1.56
1762879959.741958,1.51
1762879959.7481768,1.43
1762879959.7544498,1.45
1762879959.7606452,1.45
1762879959.767023,1.41
1762879959.77318,1.44
1762879959.7795599,1.44
1762879959.785695,1.39
1762879959.7920399,1.44
1762879959.798296,1.44
1762879959.804513,1.46
1762879959.8107378,1.45
1762879959.8169181,1.42
1762879959.8232682,1.46
1762879959.829599,1.48
1762879959.835714,1.45
1762879959.841923,1.48
1762879959.848205,1.45
1762879959.854483,1.47
1762879959.8606489,1.49
1762879959.8672042,1.5
1762879959.873157,1.52
1762879959.87954,1.5
1762879959.885684,1.47
1762879959.891979,1.52
1762879959.89831,1.52
1762879959.904459,1.52
1762879959.9107342,1.55
1762879959.916943,1.52
1762879959.923158,1.53
1762879959.9293802,1.47
1762879959.935673,1.49
1762879959.94191,1.55
1762879959.948212,1.49
1762879959.954457,1.47
1762879959.9606678,1.49
1762879959.966882,1.51
1762879959.9731572,1.52
1762879959.979439,1.51
1762879959.985729,1.52
1762879959.9919171,1.53
1762879959.9982212,1.47
1762879960.004416,1.5
1762879960.010657,1.56
1762879960.01689,1.52
1762879960.023178,1.52
1762879960.029428,1.51
1762879960.035734,1.52
1762879960.041893,1.5
1762879960.0482318,1.47
1762879960.054377,1.53
1762879960.060738,1.55
1762879960.0668921,1.51
1762879960.0732448,1.53
1762879960.079586,1.52
1762879960.085631,1.51
1762879960.0919292,1.57
1762879960.098206,1.67
1762879960.1044512,1.66
1762879960.110755,1.64
1762879960.116967,1.74
1762879960.12314,1.77
1762879960.129411,1.68
1762879960.135849,1.62
1762879960.141869,1.72
1762879960.148215,1.69
1762879960.154359,1.51
1762879960.1606662,1.46
1762879960.166909,1.52
1762879960.1732118,1.55
1762879960.179449,1.49
1762879960.185608,1.46
1762879960.191884,1.5
1762879960.198165,1.46
1762879960.2043352,1.49
1762879960.210639,1.53
1762879960.2168498,1.5
1762879960.2231371,1.47
1762879960.229346,1.47
1762879960.235606,1.52
1762879960.241824,1.55
1762879960.248078,1.5
1762879960.254399,1.53
1762879960.26065,1.54
1762879960.266858,1.53
1762879960.273111,1.6
1762879960.279385,1.72
1762879960.285559,2.03
1762879960.2917938,2.83
1762879960.2982268,3.17
1762879960.30437,3.17
1762879960.310674,3.17
1762879960.3168142,2.47
1762879960.323178,0.82
1762879960.329362,1.25
1762879960.335655,1.85
1762879960.341829,1.57
1762879960.348147,1.33
1762879960.354412,1.51
1762879960.360975,1.54
1762879960.36681,1.43
1762879960.3731709,1.43
1762879960.379374,1.5
1762879960.38564,1.5
1762879960.391835,1.52
1762879960.398029,1.52
1762879960.404316,1.51
1762879960.410657,1.51
1762879960.416886,1.52
1762879960.4231381,1.54
1762879960.429332,1.56
1762879960.435699,1.54
1762879960.441855,1.57
1762879960.4480891,1.56
1762879960.454323,1.59
1762879960.460672,1.62
1762879960.471818,1.62
1762879960.477847,1.65
1762879960.494047,1.65
1762879960.49424,1.65
1762879960.4944031,1.71
1762879960.526332,1.74
1762879960.526751,1.75
1762879960.5270169,1.78
1762879960.5271602,1.78
1762879960.527262,1.84
1762879960.529363,1.84
1762879960.5369039,1.82
1762879960.541745,1.85
1762879960.548033,1.84
1762879960.5544598,1.86
1762879960.560988,1.84
1762879960.5668359,1.76
1762879960.5730839,1.74
1762879960.579434,1.71
1762879960.5854871,1.59
1762879960.591855,1.54
1762879960.597974,1.54
1762879960.6042602,1.51
1762879960.61117,1.48
1762879960.616728,1.42
1762879960.623135,1.43
1762879960.629323,1.44
1762879960.6357179,1.43
1762879960.6418781,1.44
1762879960.648064,1.42
1762879960.654301,1.44
1762879960.6605492,1.46
1762879960.666771,1.42
1762879960.672983,1.45
1762879960.6792011,1.46
1762879960.685486,1.47
1762879960.691726,1.47
1762879960.697977,1.45
1762879960.704237,1.49
1762879960.710505,1.51
1762879960.7167602,1.48
1762879960.723103,1.51
1762879960.729255,1.5
1762879960.735518,1.49
1762879960.741774,1.54
1762879960.748096,1.52
1762879960.754246,1.52
1762879960.761152,1.52
1762879960.7667542,1.5
1762879960.773176,1.52
1762879960.779329,1.49
1762879960.7854831,1.49
1762879960.791778,1.56
1762879960.7980318,1.52
1762879960.80424,1.49
1762879960.8105059,1.52
1762879960.817014,1.51
1762879960.823099,1.52
1762879960.82932,1.49
1762879960.8355358,1.46
1762879960.841811,1.52
1762879960.8479948,1.51
1762879960.8542368,1.51
1762879960.8605099,1.55
1762879960.866981,1.49
1762879960.8730822,1.51
1762879960.879277,1.5
1762879960.8854861,1.48
1762879960.8917692,1.54
1762879960.898101,1.51
1762879960.904449,1.51
1762879960.9105122,1.52
1762879960.9167209,1.48
1762879960.922976,1.52
1762879960.929237,1.55
1762879960.935487,1.52
1762879960.941665,1.52
1762879960.947946,1.51
1762879960.95414,1.53
1762879960.961102,1.55
1762879960.966742,1.51
1762879960.9730759,1.53
1762879960.97929,1.55
1762879960.9854012,1.62
1762879960.9917781,1.7
1762879960.998038,1.64
1762879961.0042171,1.7
1762879961.010475,1.8
1762879961.016831,1.72
1762879961.022998,1.67
1762879961.029184,1.69
1762879961.035431,1.64
1762879961.04175,1.56
1762879961.0480509,1.52
1762879961.054102,1.51
1762879961.060438,1.51
1762879961.0666618,1.45
1762879961.0730188,1.5
1762879961.0791512,1.52
1762879961.085415,1.48
1762879961.091674,1.52
1762879961.098001,1.51
1762879961.104176,1.49
1762879961.110486,1.51
1762879961.116677,1.51
1762879961.122988,1.53
1762879961.129148,1.54
1762879961.135468,1.53
1762879961.141658,1.53
1762879961.147833,1.52
1762879961.154283,1.55
1762879961.160958,1.6
1762879961.1666088,1.69
1762879961.172933,2.03
1762879961.179224,2.82
1762879961.185386,3.17
1762879961.1916149,3.17
1762879961.197885,3.17
1762879961.204225,2.61
1762879961.210712,0.88
1762879961.216596,1.17
1762879961.2229388,1.85
1762879961.229153,1.61
1762879961.235371,1.34
1762879961.241626,1.5
1762879961.247863,1.52
1762879961.2541199,1.47
1762879961.2607749,1.5
1762879961.2666519,1.49
1762879961.2729778,1.51
1762879961.279209,1.5
1762879961.285556,1.48
1762879961.291661,1.55
1762879961.2978911,1.52
1762879961.304088,1.5
1762879961.3108091,1.54
1762879961.316624,1.57
1762879961.3229818,1.6
1762879961.329171,1.57
1762879961.3355148,1.55
1762879961.341693,1.62
1762879961.3479612,1.62
1762879961.354184,1.63
1762879961.3604832,1.64
1762879961.366657,1.63
1762879961.372886,1.68
1762879961.379148,1.7
1762879961.385358,1.74
1762879961.391695,1.8
1762879961.3979259,1.79
1762879961.404191,1.79
1762879961.410974,1.83
1762879961.416616,1.83
1762879961.422875,1.84
1762879961.429108,1.87
1762879961.435348,1.88
1762879961.441581,1.89
1762879961.447891,1.85
1762879961.454072,1.77
1762879961.46047,1.73
1762879961.466629,1.67
1762879961.472827,1.66
1762879961.479116,1.61
1762879961.4853098,1.51
1762879961.49164,1.51
1762879961.497836,1.48
1762879961.5042229,1.45
1762879961.510397,1.46
1762879961.5168152,1.43
1762879961.522966,1.45
1762879961.529189,1.46
1762879961.5355158,1.45
1762879961.541638,1.44
1762879961.547989,1.46
1762879961.5541089,1.45
1762879961.560586,1.48
1762879961.566609,1.45
1762879961.572814,1.47
1762879961.5790951,1.49
1762879961.585302,1.5
1762879961.591569,1.52
1762879961.597934,1.5
1762879961.604046,1.48
1762879961.610469,1.52
1762879961.616574,1.5
1762879961.6227882,1.52
1762879961.629098,1.52
1762879961.635463,1.49
1762879961.6418471,1.55
1762879961.647858,1.52
1762879961.6542258,1.51
1762879961.660442,1.52
1762879961.666821,1.5
1762879961.672852,1.55
1762879961.679211,1.54
1762879961.6855261,1.49
1762879961.6916091,1.52
1762879961.697969,1.52
1762879961.704149,1.54
1762879961.710412,1.52
1762879961.716532,1.47
1762879961.722838,1.52
1762879961.7290628,1.54
1762879961.73528,1.48
1762879961.7415848,1.52
1762879961.7477388,1.53
1762879961.754066,1.5
1762879961.760389,1.52
1762879961.766571,1.49
1762879961.772855,1.51
1762879961.779118,1.54
1762879961.785235,1.52
1762879961.791574,1.51
1762879961.797847,1.51
1762879961.804018,1.53
1762879961.810466,1.56
1762879961.8165498,1.52
1762879961.8228679,1.52
1762879961.829119,1.54
1762879961.835474,1.54
1762879961.84169,1.61
1762879961.847976,1.64
1762879961.854165,1.66
1762879961.861043,1.66
1762879961.866612,1.7
1762879961.872942,1.78
1762879961.879103,1.71
1762879961.88556,1.63
1762879961.8917708,1.71
1762879961.8978848,1.61
1762879961.9042099,1.5
1762879961.9103491,1.53
1762879961.916491,1.52
1762879961.922816,1.48
1762879961.929129,1.5
1762879961.935385,1.5
1762879961.9417112,1.51
1762879961.947834,1.48
1762879961.9543521,1.48
1762879961.960313,1.51
1762879961.966681,1.52
1762879961.9729059,1.52
1762879961.979074,1.49
1762879961.9853199,1.48
1762879961.991621,1.56
1762879961.997797,1.56
1762879962.0041401,1.51
1762879962.010325,1.53
1762879962.016536,1.53
1762879962.022787,1.64
1762879962.0291252,1.77
1762879962.038513,2.13
1762879962.042955,3.07
1762879962.06706,3.17
1762879962.067248,3.17
1762879962.06741,3.17
1762879962.067554,2.29
1762879962.086082,0.82
1762879962.1004632,1.37
1762879962.100537,1.83
1762879962.1005828,1.55
1762879962.100629,1.35
1762879962.104239,1.47
1762879962.1123462,1.53
1762879962.116597,1.44
1762879962.1227462,1.46
1762879962.128906,1.52
1762879962.135243,1.49
1762879962.14143,1.5
1762879962.1476748,1.5
1762879962.1541839,1.5
1762879962.1603131,1.54
1762879962.166495,1.51
1762879962.1727302,1.51
1762879962.179044,1.57
1762879962.1853068,1.57
1762879962.191496,1.55
1762879962.19767,1.56
1762879962.204006,1.6
1762879962.210328,1.64
1762879962.2164412,1.6
1762879962.222729,1.6
1762879962.228999,1.66
1762879962.235187,1.68
1762879962.241478,1.72
1762879962.2477372,1.69
1762879962.254055,1.73
1762879962.260318,1.81
1762879962.266386,1.78
1762879962.2727108,1.78
1762879962.278944,1.83
1762879962.2851892,1.83
1762879962.291456,1.83
1762879962.297749,1.82
1762879962.304064,1.83
1762879962.310656,1.82
1762879962.316509,1.74
1762879962.322738,1.69
1762879962.329014,1.67
1762879962.335215,1.58
1762879962.341553,1.54
1762879962.347789,1.49
1762879962.354156,1.46
1762879962.360539,1.45
1762879962.366583,1.36
1762879962.372722,1.39
1762879962.3790028,1.46
1762879962.385211,1.42
1762879962.391469,1.42
1762879962.397814,1.43
1762879962.403971,1.42
1762879962.41034,1.42
1762879962.4164128,1.4
1762879962.422702,1.44
1762879962.4289842,1.47
1762879962.4352949,1.45
1762879962.441424,1.44
1762879962.447851,1.46
1762879962.453986,1.47
1762879962.460999,1.48
1762879962.4663858,1.47
1762879962.4726741,1.51
1762879962.4789062,1.5
1762879962.485163,1.46
1762879962.491467,1.51
1762879962.497706,1.5
1762879962.5038562,1.51
1762879962.510231,1.53
1762879962.5164318,1.49
1762879962.52266,1.52
1762879962.528877,1.53
1762879962.53509,1.48
1762879962.541621,1.49
1762879962.547592,1.5
1762879962.5539122,1.5
1762879962.560199,1.49
1762879962.5663,1.45
1762879962.572593,1.49
1762879962.578839,1.52
1762879962.585103,1.47
1762879962.591391,1.5
1762879962.597589,1.48
1762879962.6039429,1.46
1762879962.610123,1.53
1762879962.616399,1.5
1762879962.622775,1.5
1762879962.628861,1.49
1762879962.63517,1.5
1762879962.641367,1.54
1762879962.647733,1.51
1762879962.6538959,1.5
1762879962.660584,1.51
1762879962.666413,1.47
1762879962.672661,1.53
1762879962.678921,1.54
1762879962.6850822,1.49
1762879962.691424,1.52
1762879962.697746,1.53
1762879962.703836,1.53
1762879962.7102232,1.55
1762879962.716387,1.49
1762879962.722616,1.52
1762879962.728865,1.65
1762879962.7350621,1.67
1762879962.741354,1.63
1762879962.747581,1.64
1762879962.7538419,1.75
1762879962.760352,1.79
1762879962.76635,1.66
1762879962.772647,1.66
1762879962.77882,1.7
1762879962.78511,1.58
1762879962.791404,1.51
1762879962.797626,1.51
1762879962.803773,1.5
1762879962.8101451,1.52
1762879962.816331,1.47
1762879962.82261,1.47
1762879962.828814,1.51
1762879962.835083,1.48
1762879962.841432,1.5
1762879962.847605,1.5
1762879962.853793,1.48
1762879962.860091,1.49
1762879962.866343,1.5
1762879962.87259,1.53
1762879962.878811,1.52
1762879962.885071,1.5
1762879962.891259,1.58
1762879962.897562,1.56
1762879962.903758,1.51
1762879962.910224,1.66
1762879962.91629,1.87
1762879962.92322,2.42
1762879962.928851,3.16
1762879962.935086,3.17
1762879962.941663,3.17
1762879962.962955,3.15
1762879962.963371,1.53
1762879962.963632,0.8
1762879962.966314,1.62
1762879962.972675,1.8
1762879962.978816,1.45
1762879962.98508,1.38
1762879962.991915,1.5
1762879962.997612,1.49
1762879963.003797,1.46
1762879963.010071,1.48
1762879963.016323,1.46
1762879963.0225532,1.5
1762879963.0288682,1.52
1762879963.035181,1.47
1762879963.041409,1.5
1762879963.047603,1.52
1762879963.053813,1.52
1762879963.060116,1.52
1762879963.0662599,1.53
1762879963.072652,1.54
1762879963.078799,1.56
1762879963.0850549,1.53
1762879963.091359,1.59
1762879963.097564,1.63
1762879963.1037629,1.61
1762879963.110202,1.64
1762879963.1163058,1.64
1762879963.12259,1.68
1762879963.128737,1.71
1762879963.135065,1.73
1762879963.141315,1.76
1762879963.147593,1.78
1762879963.153811,1.75
1762879963.160494,1.83
1762879963.166373,1.84
1762879963.173336,1.83
1762879963.178921,1.85
1762879963.18525,1.8
1762879963.1913779,1.84
1762879963.197581,1.84
1762879963.203894,1.75
1762879963.2102652,1.69
1762879963.216457,1.64
1762879963.2225978,1.59
1762879963.228841,1.55
1762879963.23521,1.47
1762879963.241468,1.44
1762879963.247721,1.43
1762879963.254058,1.43
1762879963.260187,1.42
1762879963.266548,1.39
1762879963.272641,1.42
1762879963.2788942,1.44
1762879963.285099,1.4
1762879963.291349,1.43
1762879963.297534,1.42
1762879963.303821,1.43
1762879963.310158,1.46
1762879963.31631,1.42
1762879963.3225331,1.43
1762879963.328802,1.46
1762879963.33516,1.45
1762879963.341312,1.48
1762879963.3475788,1.48
1762879963.353765,1.45
1762879963.360178,1.49
1762879963.3664389,1.48
1762879963.372577,1.48
1762879963.378758,1.52
1762879963.385016,1.5
1762879963.391537,1.5
1762879963.397504,1.49
1762879963.4037771,1.5
1762879963.410064,1.53
1762879963.416215,1.48
1762879963.4225101,1.49
1762879963.42878,1.52
1762879963.435097,1.49
1762879963.441283,1.49
1762879963.447436,1.52
1762879963.4536839,1.5
1762879963.460062,1.5
1762879963.466242,1.49
1762879963.4734411,1.49
1762879963.478945,1.51
1762879963.485,1.49
1762879963.491211,1.48
1762879963.4974668,1.5
1762879963.503676,1.51
1762879963.510131,1.51
1762879963.516213,1.48
1762879963.5225081,1.5
1762879963.528779,1.52
1762879963.535106,1.48
1762879963.5412202,1.53
1762879963.5474958,1.53
1762879963.5536761,1.51
1762879963.560128,1.53
1762879963.566412,1.52
1762879963.57251,1.53
1762879963.578667,1.52
1762879963.5849879,1.49
1762879963.5914292,1.52
1762879963.597517,1.52
1762879963.603743,1.52
1762879963.610461,1.56
1762879963.66206,1.51
1762879963.664192,1.52
1762879963.6826031,1.55
1762879963.68287,1.53
1762879963.682972,1.55
1762879963.683428,1.55
1762879963.683549,1.53
1762879963.683646,1.61
1762879963.683823,1.64
1762879963.683975,1.63
1762879963.684077,1.64
1762879963.684991,1.71
1762879963.6920588,1.81
1762879963.697442,1.75
1762879963.703756,1.67
1762879963.710111,1.7
1762879963.71632,1.69
1762879963.722551,1.6
1762879963.7287529,1.53
1762879963.734891,1.51
1762879963.741183,1.52
1762879963.747596,1.47
1762879963.753692,1.46
1762879963.760032,1.56
1762879963.766339,1.51
1762879963.77246,1.48
1762879963.778691,1.52
1762879963.784868,1.51
1762879963.791373,1.53
1762879963.797486,1.53
1762879963.803604,1.52
1762879963.809958,1.56
1762879963.816334,1.53
1762879963.8224971,1.53
1762879963.828675,1.55
1762879963.835026,1.55
1762879963.841324,1.61
1762879963.847517,1.71
1762879963.853606,1.98
1762879963.8603468,2.78
1762879963.866268,3.17
1762879963.872581,3.17
1762879963.8786838,3.17
1762879963.8850718,2.76
1762879963.891236,0.93
1762879963.8974059,1.12
1762879963.903541,1.83
1762879963.909963,1.65
1762879963.916186,1.36
1762879963.922412,1.47
1762879963.928677,1.56
1762879963.934863,1.45
1762879963.941642,1.46
1762879963.947627,1.51
1762879963.953588,1.5
1762879963.960004,1.51
1762879963.966332,1.5
1762879963.972416,1.51
1762879963.9789162,1.52
1762879963.984904,1.53
1762879963.991783,1.55
1762879963.9973671,1.55
1762879964.0036302,1.53
1762879964.010111,1.56
1762879964.016114,1.58
1762879964.0224361,1.61
1762879964.0285928,1.62
1762879964.035001,1.6
1762879964.04127,1.64
1762879964.0474062,1.67
1762879964.053685,1.66
1762879964.059943,1.7
1762879964.066083,1.7
1762879964.072453,1.75
1762879964.0786319,1.79
1762879964.084834,1.78
1762879964.091114,1.83
1762879964.097288,1.86
1762879964.1035872,1.84
1762879964.109866,1.86
1762879964.1161358,1.87
1762879964.122387,1.84
1762879964.128531,1.87
1762879964.1348732,1.81
1762879964.1412249,1.74
1762879964.1474822,1.72
1762879964.153622,1.68
1762879964.160108,1.61
1762879964.166136,1.5
1762879964.172559,1.47
1762879964.178556,1.5
1762879964.184835,1.45
1762879964.191196,1.43
1762879964.19753,1.45
1762879964.2036538,1.41
1762879964.209911,1.42
1762879964.216102,1.42
1762879964.222429,1.43
1762879964.228641,1.42
1762879964.234944,1.44
1762879964.2411578,1.46
1762879964.247571,1.44
1762879964.2537,1.45
1762879964.259884,1.48
1762879964.2661881,1.47
1762879964.272377,1.46
1762879964.2786329,1.48
1762879964.284802,1.48
1762879964.2916741,1.48
1762879964.297376,1.49
1762879964.3035011,1.51
1762879964.3097742,1.52
1762879964.316214,1.48
1762879964.3223019,1.5
1762879964.328498,1.53
1762879964.3347871,1.48
1762879964.341429,1.52
1762879964.34724,1.52
1762879964.353506,1.5
1762879964.3597922,1.51
1762879964.3660219,1.52
1762879964.372349,1.49
1762879964.3786309,1.5
1762879964.3847492,1.53
1762879964.3911738,1.53
1762879964.3973172,1.48
1762879964.403462,1.46
1762879964.4098072,1.54
1762879964.416019,1.51
1762879964.4223301,1.48
1762879964.42864,1.51
1762879964.434709,1.48
1762879964.4413178,1.48
1762879964.447285,1.51
1762879964.453556,1.52
1762879964.460047,1.54
1762879964.4660192,1.47
1762879964.472325,1.47
1762879964.478625,1.57
1762879964.484797,1.53
1762879964.4924018,1.51
1762879964.497399,1.5
1762879964.5035079,1.49
1762879964.509878,1.57
1762879964.516203,1.55
1762879964.5223858,1.5
1762879964.528699,1.51
1762879964.534813,1.5
1762879964.541814,1.54
1762879964.547335,1.55
1762879964.553666,1.51
1762879964.5598872,1.54
1762879964.5662,1.54
1762879964.572364,1.53
1762879964.5785441,1.55
1762879964.58494,1.52
1762879964.5914502,1.54
1762879964.597295,1.54
1762879964.603474,1.56
1762879964.609792,1.58
1762879964.616035,1.52
1762879964.622306,1.54
1762879964.628681,1.66
1762879964.634929,1.66
1762879964.641104,1.64
1762879964.647555,1.66
1762879964.653468,1.73
1762879964.659778,1.81
1762879964.666049,1.73
1762879964.672292,1.67
1762879964.678526,1.74
1762879964.684742,1.65
1762879964.691081,1.55
1762879964.697304,1.54
1762879964.7036219,1.52
1762879964.7098188,1.51
1762879964.71614,1.49
1762879964.722332,1.48
1762879964.728735,1.51
1762879964.734834,1.49
1762879964.741118,1.52
1762879964.7473888,1.53
1762879964.753503,1.47
1762879964.759817,1.52
1762879964.766041,1.53
1762879964.772347,1.53
1762879964.7786582,1.55
1762879964.7848399,1.53
1762879964.791157,1.55
1762879964.7972941,1.55
1762879964.803427,1.51
1762879964.8099651,1.61
1762879964.816014,1.77
1762879964.822353,2.12
1762879964.828651,2.97
1762879964.834878,3.17
1762879964.841182,3.17
1762879964.847361,3.17
1762879964.853508,2.16
1762879964.860091,0.77
1762879964.86607,1.42
1762879964.872201,1.86
1762879964.878628,1.53
1762879964.884767,1.35
1762879964.891419,1.48
1762879964.897303,1.51
1762879964.903452,1.47
1762879964.90974,1.5
1762879964.916078,1.51
1762879964.922271,1.48
1762879964.928468,1.52
1762879964.934834,1.49
1762879964.94172,1.51
1762879964.947465,1.54
1762879964.953534,1.51
1762879964.9597352,1.53
1762879964.966104,1.56
1762879964.9722948,1.58
1762879964.97873,1.57
1762879964.984834,1.54
1762879964.990999,1.59
1762879964.997365,1.64
1762879965.003401,1.6
1762879965.009701,1.63
1762879965.016008,1.64
1762879965.022343,1.68
1762879965.028448,1.73
1762879965.034889,1.71
1762879965.0410671,1.75
1762879965.04731,1.81
1762879965.053478,1.79
1762879965.059642,1.8
1762879965.066109,1.85
1762879965.072264,1.85
1762879965.078455,1.87
1762879965.084803,1.85
1762879965.091033,1.87
1762879965.09752,1.87
1762879965.103421,1.81
1762879965.109628,1.76
1762879965.1160152,1.7
1762879965.122226,1.65
1762879965.12869,1.61
1762879965.134947,1.51
1762879965.141143,1.5
1762879965.147352,1.5
1762879965.153413,1.42
1762879965.159766,1.42
1762879965.165974,1.44
1762879965.172308,1.43
1762879965.1869388,1.44
1762879965.199092,1.41
1762879965.199271,1.42
1762879965.199421,1.45
1762879965.233361,1.43
1762879965.234402,1.46
1762879965.244887,1.45
1762879965.2482271,1.45
1762879965.2483761,1.49
1762879965.24844,1.46
1762879965.248496,1.48
1762879965.248548,1.49
1762879965.2533991,1.45
1762879965.2596428,1.5
1762879965.265888,1.51
1762879965.2723908,1.47
1762879965.278651,1.53
1762879965.2845938,1.52
1762879965.2909288,1.52
1762879965.297305,1.52
1762879965.303355,1.49
1762879965.309603,1.52
1762879965.3159308,1.54
1762879965.322216,1.51
1762879965.328404,1.52
1762879965.3347042,1.5
1762879965.341729,1.5
1762879965.3472462,1.52
1762879965.3533802,1.48
1762879965.359604,1.53
1762879965.365951,1.53
1762879965.3721259,1.49
1762879965.378498,1.49
1762879965.384606,1.5
1762879965.391289,1.52
1762879965.397183,1.54
1762879965.403302,1.49
1762879965.4096608,1.48
1762879965.415989,1.52
1762879965.4222012,1.53
1762879965.428375,1.54
1762879965.434626,1.49
1762879965.44191,1.49
1762879965.4473028,1.55
1762879965.453262,1.53
1762879965.45983,1.52
1762879965.466091,1.52
1762879965.472149,1.52
1762879965.478664,1.56
1762879965.4848351,1.51
1762879965.491008,1.51
1762879965.49729,1.58
1762879965.503304,1.52
1762879965.509706,1.52
1762879965.515869,1.55
1762879965.522441,1.53
1762879965.528478,1.57
1762879965.534544,1.55
1762879965.540909,1.57
1762879965.547282,1.58
1762879965.553341,1.58
1762879965.559541,1.65
1762879965.565912,1.67
1762879965.572151,1.71
1762879965.578431,1.8
1762879965.584727,1.75
1762879965.591756,1.68
1762879965.597214,1.68
1762879965.603317,1.68
1762879965.609609,1.63
1762879965.61582,1.54
1762879965.6220942,1.51
1762879965.6282802,1.53
1762879965.6345909,1.49
1762879965.640876,1.51
1762879965.6473012,1.53
1762879965.653267,1.47
1762879965.659652,1.52
1762879965.665898,1.55
1762879965.672294,1.51
1762879965.678278,1.51
1762879965.684791,1.51
1762879965.6911402,1.56
1762879965.6972458,1.56
1762879965.703274,1.51
1762879965.7095392,1.58
1762879965.715869,1.59
1762879965.722132,1.54
1762879965.728323,1.61
1762879965.7346401,1.71
1762879965.7412648,1.98
1762879965.747069,2.73
1762879965.7532318,3.17
1762879965.759565,3.17
1762879965.7659578,3.17
1762879965.772075,2.93
1762879965.7784069,1.13
1762879965.784561,1.05
1762879965.7912772,1.79
1762879965.7972312,1.72
1762879965.8033018,1.39
1762879965.809549,1.46
1762879965.815861,1.55
1762879965.822025,1.49
1762879965.828234,1.49
1762879965.83458,1.48
1762879965.841872,1.51
1762879965.8472419,1.54
1762879965.853396,1.49
1762879965.859734,1.52
1762879965.8659341,1.54
1762879965.872066,1.52
1762879965.8785331,1.56
1762879965.884751,1.55
1762879965.890999,1.56
1762879965.8971689,1.6
1762879965.903312,1.6
1762879965.909528,1.62
1762879965.9158049,1.6
1762879965.922254,1.59
1762879965.928459,1.65
1762879965.934484,1.69
1762879965.941042,1.69
1762879965.94714,1.7
1762879965.953265,1.73
1762879965.959517,1.78
1762879965.9658182,1.75
1762879965.9721339,1.78
1762879965.978223,1.84
1762879965.98443,1.83
1762879965.991046,1.85
1762879965.997082,1.87
1762879966.0032399,1.82
1762879966.0096269,1.88
1762879966.01589,1.87
1762879966.022041,1.76
1762879966.028468,1.74
1762879966.034674,1.74
1762879966.041019,1.68
1762879966.047145,1.6
1762879966.053283,1.52
1762879966.059607,1.53
1762879966.065959,1.5
1762879966.074047,1.39
1762879966.07819,1.44
1762879966.08446,1.46
1762879966.091022,1.41
1762879966.096992,1.42
1762879966.103169,1.41
1762879966.109364,1.45
1762879966.115734,1.48
1762879966.122735,1.41
1762879966.1281862,1.43
1762879966.1346529,1.47
1762879966.1407418,1.45
1762879966.147008,1.45
1762879966.153167,1.44
1762879966.159487,1.49
1762879966.165618,1.49
1762879966.173333,1.48
1762879966.178398,1.49
1762879966.18465,1.45
1762879966.1908019,1.51
1762879966.197151,1.54
1762879966.203273,1.49
1762879966.209582,1.51
1762879966.215735,1.52
1762879966.222025,1.48
1762879966.228398,1.52
1762879966.234615,1.52
1762879966.240704,1.51
1762879966.247016,1.53
1762879966.253213,1.49
1762879966.259472,1.52
1762879966.265666,1.51
1762879966.2720141,1.45
1762879966.278416,1.52
1762879966.284599,1.52
1762879966.291073,1.49
1762879966.296984,1.5
1762879966.30312,1.47
1762879966.309545,1.53
1762879966.315779,1.52
1762879966.321928,1.47
1762879966.32817,1.52
1762879966.334382,1.52
1762879966.341153,1.5
1762879966.346858,1.49
1762879966.3530948,1.49
1762879966.3594172,1.52
1762879966.365599,1.52
1762879966.371968,1.52
1762879966.37835,1.54
1762879966.384432,1.5
1762879966.3912818,1.46
1762879966.396994,1.54
1762879966.4032,1.55
1762879966.409481,1.55
1762879966.4157498,1.52
1762879966.421936,1.49
1762879966.428427,1.55
1762879966.434731,1.57
1762879966.441198,1.58
1762879966.447114,1.63
1762879966.45332,1.63
1762879966.459518,1.67
1762879966.4656498,1.77
1762879966.4737668,1.75
1762879966.478318,1.68
1762879966.484561,1.62
1762879966.4909718,1.69
1762879966.497022,1.66
1762879966.503525,1.52
1762879966.5094242,1.5
1762879966.515844,1.5
1762879966.522036,1.5
1762879966.528308,1.51
1762879966.5346859,1.47
1762879966.5411909,1.47
1762879966.5470562,1.51
1762879966.553428,1.47
1762879966.559382,1.5
1762879966.565758,1.52
1762879966.57196,1.51
1762879966.578381,1.53
1762879966.584594,1.5
1762879966.591586,1.52
1762879966.5970979,1.55
1762879966.6030998,1.52
1762879966.619891,1.55
1762879966.656064,1.56
1762879966.665438,1.6
1762879966.6663349,1.8
1762879966.677898,2.32
1762879966.678092,3.15
1762879966.6781921,3.17
1762879966.678286,3.17
1762879966.6783822,3.16
1762879966.678741,1.92
1762879966.6788878,0.73
1762879966.678988,1.51
1762879966.684368,1.85
1762879966.690557,1.47
1762879966.6968262,1.33
1762879966.703061,1.47
1762879966.7093801,1.54
1762879966.7156758,1.48
1762879966.721859,1.43
1762879966.728061,1.48
1762879966.734337,1.48
1762879966.7405891,1.48
1762879966.746774,1.52
1762879966.753217,1.48
1762879966.759419,1.51
1762879966.765532,1.56
1762879966.7724319,1.52
1762879966.77849,1.51
1762879966.78451,1.53
1762879966.790661,1.58
1762879966.796911,1.58
1762879966.803212,1.55
1762879966.809391,1.6
1762879966.815686,1.61
1762879966.82194,1.59
1762879966.828373,1.62
1762879966.834474,1.65
1762879966.8407009,1.69
1762879966.8469388,1.74
1762879966.853132,1.71
1762879966.859313,1.74
1762879966.865592,1.78
1762879966.8731542,1.75
1762879966.8780549,1.81
1762879966.8845599,1.82
1762879966.890622,1.8
1762879966.897032,1.82
1762879966.903187,1.83
1762879966.909248,1.81
1762879966.9157262,1.77
1762879966.921987,1.71
1762879966.928222,1.65
1762879966.934489,1.58
1762879966.940688,1.51
1762879966.946885,1.5
1762879966.95298,1.48
1762879966.9593952,1.44
1762879966.965746,1.43
1762879966.9718451,1.4
1762879966.978204,1.43
1762879966.9843378,1.38
1762879966.990616,1.38
1762879966.9968379,1.42
1762879967.003604,1.4
1762879967.00929,1.41
1762879967.0155709,1.44
1762879967.022125,1.42
1762879967.028099,1.43
1762879967.034325,1.42
1762879967.040661,1.4
1762879967.0468469,1.46
1762879967.0532851,1.45
1762879967.059305,1.47
1762879967.06561,1.48
1762879967.072051,1.44
1762879967.078241,1.48
1762879967.084425,1.49
1762879967.0906081,1.45
1762879967.096846,1.48
1762879967.103116,1.49
1762879967.1094022,1.5
1762879967.1156118,1.49
1762879967.121836,1.47
1762879967.128145,1.53
1762879967.1342452,1.5
1762879967.1406,1.47
1762879967.146961,1.5
1762879967.1530921,1.48
1762879967.1594062,1.48
1762879967.1655738,1.5
1762879967.172035,1.48
1762879967.178138,1.48
1762879967.184458,1.47
1762879967.190735,1.49
1762879967.196739,1.51
1762879967.203331,1.48
1762879967.209264,1.49
1762879967.215564,1.49
1762879967.222765,1.46
1762879967.2280629,1.52
1762879967.234404,1.52
1762879967.240534,1.49
1762879967.246965,1.48
1762879967.253021,1.49
1762879967.259315,1.53
1762879967.265685,1.53
1762879967.272017,1.49
1762879967.278097,1.5
1762879967.284598,1.51
1762879967.290595,1.56
1762879967.296881,1.54
1762879967.303104,1.5
1762879967.3094,1.52
1762879967.3154922,1.52
1762879967.322894,1.51
1762879967.328056,1.57
1762879967.334444,1.53
1762879967.34046,1.51
1762879967.346816,1.55
1762879967.353017,1.57
1762879967.3593569,1.63
1762879967.365679,1.67
1762879967.372146,1.62
1762879967.3781602,1.7
1762879967.3844879,1.8
1762879967.3906822,1.74
1762879967.396699,1.65
1762879967.4034162,1.64
1762879967.4091709,1.73
1762879967.415442,1.63
1762879967.422821,1.49
1762879967.428148,1.5
1762879967.434589,1.49
1762879967.4406369,1.48
1762879967.4469938,1.51
1762879967.4531379,1.5
1762879967.459305,1.51
1762879967.465437,1.47
1762879967.472533,1.47
1762879967.477906,1.53
1762879967.484117,1.52
1762879967.49055,1.51
1762879967.496692,1.52
1762879967.5029671,1.5
1762879967.5091698,1.54
1762879967.51541,1.56
1762879967.521868,1.54
1762879967.527947,1.55
1762879967.534154,1.54
1762879967.540392,1.64
1762879967.5466409,1.89
1762879967.55299,2.46
1762879967.559113,3.16
1762879967.5653608,3.17
1762879967.571626,3.17
1762879967.5778959,3.13
1762879967.584108,1.38
1762879967.590302,0.84
1762879967.5966048,1.74
1762879967.602892,1.77
1762879967.60922,1.39
1762879967.615318,1.43
1762879967.621706,1.53
1762879967.627879,1.52
1762879967.634064,1.44
1762879967.6404102,1.43
1762879967.646699,1.53
1762879967.653203,1.51
1762879967.6594229,1.49
1762879967.665482,1.52
1762879967.671967,1.5
1762879967.6780422,1.51
1762879967.6841862,1.53
1762879967.690512,1.55
1762879967.696655,1.58
1762879967.7029471,1.57
1762879967.709176,1.58
1762879967.7153568,1.59
1762879967.722239,1.59
1762879967.7279391,1.63
1762879967.734139,1.63
1762879967.740417,1.64
1762879967.746588,1.71
1762879967.7531111,1.7
1762879967.759073,1.73
1762879967.765325,1.76
1762879967.771601,1.73
1762879967.777857,1.81
1762879967.784106,1.84
1762879967.7903519,1.83
1762879967.7965949,1.85
1762879967.802915,1.82
1762879967.8091252,1.87
1762879967.815339,1.88
1762879967.821593,1.85
1762879967.827793,1.88
1762879967.834063,1.81
1762879967.84031,1.72
1762879967.8465998,1.69
1762879967.852941,1.62
1762879967.859071,1.59
1762879967.865309,1.53
1762879967.871594,1.46
1762879967.877877,1.47
1762879967.884115,1.47
1762879967.890292,1.45
1762879967.896534,1.45
1762879967.9030871,1.42
1762879967.909142,1.43
1762879967.915235,1.45
1762879967.921621,1.42
1762879967.927775,1.46
1762879967.934038,1.44
1762879967.9403121,1.47
1762879967.9465652,1.47
1762879967.953223,1.45
1762879967.959053,1.48
1762879967.965319,1.45
1762879967.984376,1.47
1762879967.98454,1.56
1762879967.984674,1.52
1762879967.9903538,1.47
1762879967.997053,1.52
1762879968.002829,1.51
1762879968.012326,1.53
1762879968.033323,1.57
1762879968.033539,1.5
1762879968.033715,1.49
1762879968.067446,1.55
1762879968.067672,1.56
1762879968.0678651,1.53
1762879968.068047,1.49
1762879968.068219,1.52
1762879968.095577,1.53
1762879968.096056,1.49
1762879968.0961769,1.52
1762879968.09628,1.55
1762879968.096574,1.51
1762879968.09678,1.52
1762879968.102871,1.51
1762879968.1103628,1.52
1762879968.1166122,1.53
1762879968.12325,1.53
1762879968.127806,1.54
1762879968.134071,1.52
1762879968.140348,1.52
1762879968.146519,1.56
1762879968.152816,1.53
1762879968.1591868,1.51
1762879968.165442,1.52
1762879968.1715462,1.51
1762879968.1779048,1.52
1762879968.184084,1.54
1762879968.190346,1.53
1762879968.196497,1.54
1762879968.202919,1.54
1762879968.209016,1.53
1762879968.215286,1.54
1762879968.221708,1.52
1762879968.227865,1.55
1762879968.234272,1.54
1762879968.2403278,1.54
1762879968.246513,1.57
1762879968.252882,1.53
1762879968.2590332,1.53
1762879968.265364,1.57
1762879968.2716138,1.57
1762879968.277996,1.56
1762879968.284109,1.54
1762879968.290366,1.55
1762879968.2965372,1.58
1762879968.302777,1.58
1762879968.309013,1.62
1762879968.3154292,1.67
1762879968.32193,1.63
1762879968.327869,1.71
1762879968.3343868,1.8
1762879968.340373,1.77
1762879968.346771,1.71
1762879968.352829,1.66
1762879968.359333,1.73
1762879968.36543,1.7
1762879968.371666,1.56
1762879968.377766,1.52
1762879968.384052,1.51
1762879968.390644,1.52
1762879968.3967512,1.54
1762879968.402889,1.5
1762879968.409158,1.48
1762879968.4153368,1.54
1762879968.421922,1.54
1762879968.427843,1.53
1762879968.434208,1.54
1762879968.4403079,1.53
1762879968.446483,1.54
1762879968.4528599,1.51
1762879968.4590862,1.56
1762879968.465374,1.61
1762879968.471633,1.55
1762879968.4777222,1.56
1762879968.4840598,1.57
1762879968.49028,1.65
1762879968.496408,1.84
1762879968.502764,2.21
1762879968.509256,3.1
1762879968.515265,3.17
1762879968.521562,3.17
1762879968.5278971,3.17
1762879968.534135,2.07
1762879968.540276,0.79
1762879968.54658,1.51
1762879968.552754,1.85
1762879968.5589702,1.53
1762879968.565237,1.42
1762879968.571708,1.5
1762879968.577724,1.55
1762879968.583997,1.51
1762879968.5902789,1.46
1762879968.5964391,1.52
1762879968.602873,1.5
1762879968.6089668,1.51
1762879968.615262,1.56
1762879968.621761,1.54
1762879968.6278021,1.55
1762879968.634038,1.55
1762879968.6402209,1.52
1762879968.646376,1.6
1762879968.652798,1.58
1762879968.658992,1.57
1762879968.665309,1.61
1762879968.6714969,1.6
1762879968.6778271,1.62
1762879968.6839428,1.66
1762879968.690155,1.65
1762879968.696374,1.68
1762879968.703915,1.68
1762879968.708967,1.73
1762879968.715274,1.77
1762879968.7216609,1.77
1762879968.7277591,1.81
1762879968.7339892,1.82
1762879968.7405,1.84
1762879968.746388,1.86
1762879968.752797,1.86
1762879968.758948,1.89
1762879968.7651572,1.89
1762879968.7716138,1.85
1762879968.777837,1.87
1762879968.7842188,1.86
1762879968.7903419,1.76
1762879968.796492,1.71
1762879968.8027341,1.67
1762879968.808949,1.62
1762879968.815396,1.54
1762879968.821614,1.52
1762879968.8278122,1.52
1762879968.834151,1.48
1762879968.8402061,1.44
1762879968.846417,1.47
1762879968.852766,1.43
1762879968.85919,1.42
1762879968.865215,1.48
1762879968.871495,1.46
1762879968.8778272,1.46
1762879968.8840861,1.47
1762879968.890305,1.43
1762879968.896482,1.47
1762879968.9027588,1.49
1762879968.9089248,1.48
1762879968.9154198,1.46
1762879968.921535,1.47
1762879968.9278111,1.52
1762879968.934144,1.52
1762879968.940267,1.49
1762879968.94656,1.52
1762879968.952657,1.51
1762879968.958876,1.49
1762879968.965346,1.52
1762879968.971773,1.51
1762879968.977668,1.54
1762879968.983922,1.53
1762879968.990336,1.49
1762879968.99667,1.53
1762879969.0027149,1.54
1762879969.008945,1.53
1762879969.015454,1.52
1762879969.0214558,1.5
1762879969.027713,1.55
1762879969.033918,1.51
1762879969.040473,1.49
1762879969.046368,1.53
1762879969.052701,1.52
1762879969.059114,1.49
1762879969.065359,1.52
1762879969.071831,1.51
1762879969.077752,1.52
1762879969.0839958,1.56
1762879969.0903292,1.5
1762879969.096423,1.5
1762879969.102775,1.53
1762879969.108796,1.55
1762879969.1152132,1.54
1762879969.121373,1.52
1762879969.1276128,1.54
1762879969.13424,1.54
1762879969.14065,1.52
1762879969.1466382,1.57
1762879969.1526668,1.52
1762879969.158862,1.51
1762879969.165426,1.57
1762879969.1720698,1.55
1762879969.1776361,1.52
1762879969.1839428,1.53
1762879969.190198,1.53
1762879969.1963892,1.57
1762879969.202682,1.57
1762879969.2092018,1.58
1762879969.2152839,1.65
1762879969.221503,1.64
1762879969.227742,1.62
1762879969.2339149,1.7
1762879969.2401679,1.77
1762879969.24646,1.79
1762879969.252766,1.67
1762879969.259003,1.64
1762879969.265301,1.74
1762879969.271958,1.64
1762879969.2776818,1.53
1762879969.283856,1.52
1762879969.290082,1.51
1762879969.2963252,1.54
1762879969.303787,1.5
1762879969.308885,1.49
1762879969.315125,1.53
1762879969.321428,1.51
1762879969.32754,1.51
1762879969.3338282,1.53
1762879969.339995,1.52
1762879969.346241,1.52
1762879969.352672,1.51
1762879969.358763,1.53
1762879969.3650298,1.58
1762879969.371315,1.54
1762879969.3775759,1.57
1762879969.383832,1.56
1762879969.390052,1.54
1762879969.396309,1.7
1762879969.4025989,1.98
1762879969.408725,2.59
1762879969.415169,3.17
1762879969.421521,3.17
1762879969.4275541,3.17
1762879969.43381,3.14
1762879969.4401112,1.46
1762879969.446503,0.9
1762879969.45271,1.7
1762879969.4588008,1.74
1762879969.465064,1.41
1762879969.471367,1.42
1762879969.4775438,1.53
1762879969.483779,1.49
1762879969.490029,1.43
1762879969.496247,1.52
1762879969.503037,1.5
1762879969.508786,1.47
1762879969.514975,1.55
1762879969.521271,1.53
1762879969.5275478,1.52
1762879969.533865,1.52
1762879969.540048,1.54
1762879969.5463,1.59
1762879969.552777,1.56
1762879969.558835,1.56
1762879969.565082,1.59
1762879969.590912,1.6
1762879969.611131,1.66
1762879969.612035,1.64
1762879969.613992,1.6
1762879969.6153228,1.68
1762879969.6175091,1.69
1762879969.619366,1.7
1762879969.6195462,1.74
1762879969.621748,1.75
1762879969.627614,1.8
1762879969.634064,1.86
1762879969.64072,1.86
1762879969.646204,1.88
1762879969.652708,1.85
1762879969.658693,1.85
1762879969.6649559,1.92
1762879969.671179,1.93
1762879969.677432,1.91
1762879969.683692,1.88
1762879969.689941,1.8
1762879969.696394,1.79
1762879969.7027469,1.72
1762879969.708682,1.65
1762879969.714998,1.6
1762879969.7212029,1.55
1762879969.72749,1.55
1762879969.733682,1.54
1762879969.739946,1.49
1762879969.746179,1.51
1762879969.752575,1.48
1762879969.758739,1.46
1762879969.76512,1.53
1762879969.771258,1.5
1762879969.777643,1.52
1762879969.7837582,1.53
1762879969.790004,1.49
1762879969.796224,1.55
1762879969.802498,1.56
1762879969.8086882,1.54
1762879969.815038,1.55
1762879969.821436,1.57
1762879969.827507,1.57
1762879969.833762,1.59
1762879969.840048,1.57
1762879969.846302,1.61
1762879969.853475,1.61
1762879969.8586812,1.59
1762879969.8651829,1.64
1762879969.8714318,1.63
1762879969.877514,1.64
1762879969.8838909,1.65
1762879969.8900878,1.62
1762879969.896491,1.62
1762879969.902485,1.66
1762879969.9087691,1.65
1762879969.915262,1.66
1762879969.92154,1.65
1762879969.927443,1.66
1762879969.933861,1.66
1762879969.939973,1.64
1762879969.946375,1.66
1762879969.952458,1.68
1762879969.9589891,1.67
1762879969.964951,1.67
1762879969.971327,1.64
1762879969.977482,1.7
1762879969.983702,1.7
1762879969.9898822,1.65
1762879969.99611,1.71
1762879970.0025861,1.71
1762879970.008707,1.67
1762879970.015146,1.71
1762879970.021235,1.71
1762879970.027489,1.71
1762879970.0337348,1.73
1762879970.039846,1.68
1762879970.046367,1.71
1762879970.052584,1.74
1762879970.058671,1.73
1762879970.065103,1.74
1762879970.071222,1.67
1762879970.077395,1.74
1762879970.083798,1.81
1762879970.0899851,1.75
1762879970.0962088,1.78
1762879970.1024508,1.85
1762879970.108601,1.85
1762879970.114934,1.87
1762879970.1211698,1.92
1762879970.127315,2.02
1762879970.133644,1.98
1762879970.1399522,1.85
1762879970.1460962,1.9
1762879970.152781,1.92
1762879970.15857,1.82
1762879970.16506,1.78
1762879970.1712158,1.73
1762879970.177375,1.71
1762879970.183678,1.71
1762879970.1899462,1.69
1762879970.1964118,1.76
1762879970.202483,1.76
1762879970.20866,1.72
1762879970.21488,1.76
1762879970.221165,1.76
1762879970.227332,1.74
1762879970.233737,1.74
1762879970.239949,1.73
1762879970.246263,1.79
1762879970.253518,1.81
1762879970.258612,1.77
1762879970.26507,1.79
1762879970.2712681,1.77
1762879970.277339,1.85
1762879970.283676,2.05
1762879970.289925,2.41
1762879970.296427,3.16
1762879970.3025548,3.17
1762879970.3087392,3.18
1762879970.3148491,3.17
1762879970.321113,3.04
1762879970.327311,1.45
1762879970.333729,1.32
1762879970.339846,1.97
1762879970.34604,1.91
1762879970.352331,1.65
1762879970.3585742,1.68
1762879970.364813,1.75
1762879970.371132,1.72
1762879970.3773031,1.69
1762879970.383635,1.71
1762879970.389855,1.72
1762879970.3961332,1.75
1762879970.402336,1.76
1762879970.408706,1.71
1762879970.414891,1.75
1762879970.421068,1.75
1762879970.427279,1.74
1762879970.4336488,1.78
1762879970.439937,1.77
1762879970.446163,1.8
1762879970.452744,1.83
1762879970.458642,1.79
1762879970.464891,1.85
1762879970.471112,1.87
1762879970.4773781,1.82
1762879970.483713,1.85
1762879970.4899871,1.89
1762879970.4962718,1.95
1762879970.5024168,1.93
1762879970.5085142,1.93
1762879970.514899,2.02
1762879970.5213618,2.0
1762879970.527355,1.96
1762879970.5336041,2.02
1762879970.539936,2.04
1762879970.5460439,2.07
1762879970.55231,2.06
1762879970.558496,2.0
1762879970.564724,2.03
1762879970.5710669,1.98
1762879970.577251,1.93
1762879970.583628,1.9
1762879970.589758,1.8
1762879970.596055,1.74
1762879970.6027179,1.71
1762879970.608789,1.62
1762879970.615118,1.59
1762879970.621156,1.59
1762879970.6274738,1.56
1762879970.633607,1.57
1762879970.639884,1.54
1762879970.646115,1.55
1762879970.65225,1.55
1762879970.6585631,1.51
1762879970.6648672,1.55
1762879970.671042,1.55
1762879970.6772292,1.54
1762879970.6837718,1.52
1762879970.689781,1.47
1762879970.69603,1.55
1762879970.702332,1.58
1762879970.708517,1.51
1762879970.7150788,1.52
1762879970.7210329,1.54
1762879970.727482,1.55
1762879970.7336068,1.55
1762879970.739925,1.51
1762879970.746061,1.52
1762879970.752332,1.54
1762879970.7585652,1.51
1762879970.764725,1.54
1762879970.771064,1.5
1762879970.777184,1.52
1762879970.783596,1.57
1762879970.7898052,1.49
1762879970.795975,1.49
1762879970.802306,1.52
1762879970.808484,1.49
1762879970.814786,1.51
1762879970.821007,1.47
1762879970.827219,1.49
1762879970.833537,1.51
1762879970.839808,1.44
1762879970.8460832,1.5
1762879970.852422,1.49
1762879970.8586571,1.47
1762879970.864969,1.49
1762879970.871016,1.45
1762879970.8773592,1.47
1762879970.883618,1.5
1762879970.889787,1.45
1762879970.895941,1.47
1762879970.9022222,1.48
1762879970.908602,1.45
1762879970.9149282,1.45
1762879970.921101,1.43
1762879970.92721,1.45
1762879970.933559,1.47
1762879970.939776,1.44
1762879970.9461608,1.46
1762879970.952252,1.45
1762879970.9584131,1.43
1762879970.965478,1.49
1762879970.9713311,1.45
1762879970.977294,1.41
1762879970.9835289,1.44
1762879971.0000331,1.44
1762879971.0608058,1.51
1762879971.0610712,1.55
1762879971.061183,1.54
1762879971.061365,1.57
1762879971.061424,1.6
1762879971.061549,1.6
1762879971.061617,1.63
1762879971.061682,1.55
1762879971.061743,1.56
1762879971.061806,1.52
1762879971.061868,1.4
1762879971.064748,1.41
1762879971.072147,1.38
1762879971.077152,1.34
1762879971.083425,1.36
1762879971.0896971,1.31
1762879971.096093,1.33
1762879971.102154,1.37
1762879971.1084108,1.34
1762879971.114649,1.34
1762879971.121171,1.32
1762879971.127187,1.33
1762879971.133457,1.34
1762879971.139568,1.3
1762879971.145942,1.34
1762879971.152312,1.37
1762879971.158442,1.33
1762879971.1647081,1.37
1762879971.1709309,1.33
1762879971.1772292,1.34
1762879971.183838,1.54
1762879971.18961,1.93
1762879971.196,2.74
1762879971.202344,3.16
1762879971.208663,3.17
1762879971.2149692,3.16
1762879971.220994,1.67
1762879971.227233,0.46
1762879971.2334569,1.35
1762879971.2396522,1.63
1762879971.2459362,1.2
1762879971.252209,1.13
1762879971.2584698,1.27
1762879971.26503,1.3
1762879971.270956,1.22
1762879971.277431,1.22
1762879971.2834291,1.27
1762879971.2897432,1.22
1762879971.296007,1.22
1762879971.303277,1.26
1762879971.3084512,1.28
1762879971.314689,1.3
1762879971.3210702,1.26
1762879971.327119,1.24
1762879971.333659,1.33
1762879971.339836,1.3
1762879971.345984,1.29
1762879971.352177,1.3
1762879971.358476,1.34
1762879971.3647418,1.37
1762879971.370883,1.35
1762879971.377088,1.35
1762879971.383369,1.41
1762879971.389699,1.42
1762879971.395957,1.46
1762879971.402271,1.43
1762879971.408394,1.44
1762879971.414654,1.55
1762879971.4208949,1.55
1762879971.427135,1.52
1762879971.433422,1.58
1762879971.4396548,1.57
1762879971.445874,1.61
1762879971.452178,1.61
1762879971.4584022,1.58
1762879971.464876,1.61
1762879971.470858,1.55
1762879971.477209,1.48
1762879971.4834769,1.46
1762879971.489613,1.37
1762879971.496057,1.33
1762879971.502228,1.3
1762879971.508291,1.2
1762879971.514921,1.21
1762879971.520905,1.19
1762879971.5272079,1.17
1762879971.5334048,1.19
1762879971.5397189,1.13
1762879971.546041,1.13
1762879971.552203,1.18
1762879971.558424,1.16
1762879971.5647302,1.18
1762879971.5709171,1.14
1762879971.577211,1.15
1762879971.5835211,1.25
1762879971.589656,1.21
1762879971.595873,1.17
1762879971.6021771,1.21
1762879971.6085382,1.22
1762879971.6150908,1.22
1762879971.621121,1.22
1762879971.627118,1.23
1762879971.63342,1.27
1762879971.639751,1.22
1762879971.645994,1.27
1762879971.652302,1.28
1762879971.6585758,1.24
1762879971.6649148,1.28
1762879971.6708539,1.26
1762879971.677142,1.25
1762879971.683396,1.29
1762879971.6895628,1.26
1762879971.695751,1.27
1762879971.702112,1.29
1762879971.70834,1.26
1762879971.7145002,1.31
1762879971.720974,1.3
1762879971.7270982,1.24
1762879971.733962,1.32
1762879971.739659,1.3
1762879971.7460449,1.28
1762879971.752029,1.3
1762879971.758367,1.27
1762879971.764729,1.3
1762879971.770903,1.31
1762879971.777009,1.29
1762879971.783442,1.33
1762879971.7895439,1.31
1762879971.795903,1.3
1762879971.802109,1.34
1762879971.808258,1.3
1762879971.8146691,1.32
1762879971.820839,1.32
1762879971.827116,1.31
1762879971.8333309,1.39
1762879971.839604,1.36
1762879971.845981,1.32
1762879971.8520489,1.35
1762879971.858326,1.35
1762879971.8646002,1.37
1762879971.8708549,1.36
1762879971.877077,1.36
1762879971.883351,1.43
1762879971.889639,1.45
1762879971.895843,1.47
1762879971.902072,1.51
1762879971.908302,1.57
1762879971.914571,1.63
1762879971.920745,1.55
1762879971.927016,1.47
1762879971.933318,1.52
1762879971.939498,1.53
1762879971.945764,1.43
1762879971.952042,1.36
1762879971.9582772,1.33
1762879971.964635,1.39
1762879971.9707751,1.35
1762879971.977042,1.35
1762879971.983372,1.4
1762879971.98953,1.35
1762879971.995837,1.37
1762879972.0020192,1.4
1762879972.0082612,1.35
1762879972.014532,1.39
1762879972.020774,1.42
1762879972.0270689,1.41
1762879972.0333261,1.43
1762879972.0396018,1.43
1762879972.04586,1.44
1762879972.052008,1.44
1762879972.058203,1.44
1762879972.064577,1.51
1762879972.070749,1.61
1762879972.076951,1.89
1762879972.083312,2.67
1762879972.089531,3.16
1762879972.0959492,3.17
1762879972.102047,3.17
1762879972.1082282,2.61
1762879972.1145952,0.84
1762879972.120817,1.12
1762879972.126954,1.76
1762879972.133271,1.55
1762879972.139518,1.28
1762879972.1457438,1.4
1762879972.152111,1.47
1762879972.1583,1.38
1762879972.164511,1.43
1762879972.170836,1.44
1762879972.176942,1.42
1762879972.1833642,1.49
1762879972.1895528,1.43
1762879972.195758,1.43
1762879972.202034,1.51
1762879972.2081752,1.48
1762879972.2144608,1.48
1762879972.220809,1.48
1762879972.2271209,1.52
1762879972.233254,1.56
1762879972.2395031,1.55
1762879972.245727,1.54
1762879972.252028,1.58
1762879972.2584052,1.59
1762879972.2644548,1.63
1762879972.270751,1.63
1762879972.277209,1.66
1762879972.283722,1.72
1762879972.289613,1.69
1762879972.2958632,1.72
1762879972.301997,1.76
1762879972.308171,1.77
1762879972.3144698,1.86
1762879972.320698,1.84
1762879972.327007,1.83
1762879972.3332748,1.88
1762879972.339471,1.86
1762879972.3458009,1.89
1762879972.351983,1.87
1762879972.358155,1.8
1762879972.364479,1.79
1762879972.3821728,1.72
1762879972.427883,1.64
1762879972.4340422,1.63
1762879972.438741,1.57
1762879972.4388962,1.52
1762879972.439073,1.5
1762879972.439605,1.48
1762879972.439716,1.52
1762879972.4398022,1.45
1762879972.439883,1.42
1762879972.4399638,1.49
1762879972.440085,1.45
1762879972.44572,1.44
1762879972.4527261,1.47
1762879972.4581308,1.48
1762879972.4644349,1.52
1762879972.470724,1.46
1762879972.476938,1.44
1762879972.483178,1.53
1762879972.489372,1.51
1762879972.495608,1.47
1762879972.5019038,1.52
1762879972.5081222,1.51
1762879972.514484,1.54
1762879972.520782,1.53
1762879972.52695,1.52
1762879972.533241,1.56
1762879972.539413,1.54
1762879972.5455859,1.56
1762879972.551816,1.57
1762879972.558202,1.55
1762879972.5643442,1.57
1762879972.5706859,1.54
1762879972.576847,1.54
1762879972.583143,1.59
1762879972.589453,1.56
1762879972.595597,1.56
1762879972.601849,1.58
1762879972.608129,1.53
1762879972.6144361,1.57
1762879972.620694,1.58
1762879972.626985,1.55
1762879972.6334631,1.58
1762879972.639346,1.53
1762879972.6459048,1.55
1762879972.651937,1.6
1762879972.658186,1.55
1762879972.664395,1.57
1762879972.670675,1.56
1762879972.6768398,1.56
1762879972.6834939,1.61
1762879972.689365,1.54
1762879972.6957812,1.56
1762879972.701931,1.61
1762879972.7081559,1.58
1762879972.714404,1.57
1762879972.720853,1.64
1762879972.7268748,1.68
1762879972.733213,1.7
1762879972.739371,1.69
1762879972.745634,1.79
1762879972.751897,1.81
1762879972.758101,1.7
1762879972.7643871,1.72
1762879972.770724,1.75
1762879972.77682,1.62
1762879972.783084,1.57
1762879972.789325,1.57
1762879972.7956202,1.56
1762879972.801806,1.53
1762879972.808079,1.51
1762879972.8143191,1.54
1762879972.820656,1.53
1762879972.826853,1.53
1762879972.833117,1.57
1762879972.839293,1.53
1762879972.845655,1.52
1762879972.851825,1.56
1762879972.858051,1.55
1762879972.864355,1.58
1762879972.870611,1.55
1762879972.876823,1.53
1762879972.883358,1.61
1762879972.889387,1.6
1762879972.895571,1.57
1762879972.901797,1.63
1762879972.90808,1.75
1762879972.914536,2.12
1762879972.920612,2.86
1762879972.926795,3.17
1762879972.933258,3.17
1762879972.939265,3.17
1762879972.945621,2.91
1762879972.951823,1.11
1762879972.958067,1.08
1762879972.964351,1.78
1762879972.9705868,1.69
1762879972.976848,1.41
1762879972.983266,1.5
1762879972.9892879,1.51
1762879972.995702,1.49
1762879973.001817,1.52
1762879973.0080519,1.48
1762879973.014362,1.53
1762879973.020639,1.54
1762879973.026867,1.51
1762879973.040203,1.54
1762879973.058274,1.52
1762879973.058513,1.54
1762879973.0587652,1.56
1762879973.059093,1.54
1762879973.06647,1.56
1762879973.070564,1.61
1762879973.076952,1.61
1762879973.083095,1.61
1762879973.089354,1.58
1762879973.095724,1.61
1762879973.101801,1.7
1762879973.108137,1.65
1762879973.114285,1.68
1762879973.120485,1.72
1762879973.1268108,1.74
1762879973.133035,1.77
1762879973.139227,1.8
1762879973.145499,1.84
1762879973.151808,1.83
1762879973.158039,1.8
1762879973.164276,1.86
1762879973.17059,1.88
1762879973.1768,1.87
1762879973.183237,1.91
1762879973.1892312,1.85
1762879973.1955578,1.8
1762879973.2018409,1.79
1762879973.208004,1.69
1762879973.214303,1.67
1762879973.2205088,1.62
1762879973.226752,1.52
1762879973.233249,1.52
1762879973.239265,1.48
1762879973.245665,1.47
1762879973.2517078,1.48
1762879973.258024,1.42
1762879973.26438,1.45
1762879973.270553,1.45
1762879973.27693,1.43
1762879973.283241,1.46
1762879973.2894871,1.46
1762879973.295837,1.45
1762879973.3017862,1.46
1762879973.30804,1.44
1762879973.314332,1.48
1762879973.320603,1.46
1762879973.326936,1.46
1762879973.333138,1.5
1762879973.339335,1.49
1762879973.345684,1.51
1762879973.351718,1.53
1762879973.3580139,1.49
1762879973.36439,1.5
1762879973.3705752,1.51
1762879973.37698,1.49
1762879973.383036,1.52
1762879973.389387,1.52
1762879973.395551,1.54
1762879973.40181,1.54
1762879973.408014,1.48
1762879973.414459,1.53
1762879973.420539,1.54
1762879973.4267142,1.48
1762879973.433005,1.51
1762879973.43921,1.52
1762879973.4454489,1.52
1762879973.4517388,1.52
1762879973.457927,1.49
1762879973.464704,1.52
1762879973.4705448,1.53
1762879973.476952,1.48
1762879973.483152,1.53
1762879973.4893281,1.52
1762879973.495691,1.49
1762879973.5018082,1.54
1762879973.5079622,1.52
1762879973.5148458,1.54
1762879973.520469,1.51
1762879973.5268621,1.48
1762879973.5331452,1.53
1762879973.5392141,1.54
1762879973.545622,1.58
1762879973.551645,1.65
1762879973.558109,1.57
1762879973.564217,1.62
1762879973.570573,1.79
1762879973.576635,1.77
1762879973.582976,1.73
1762879973.589254,1.64
1762879973.595416,1.68
1762879973.6016269,1.67
1762879973.607966,1.52
1762879973.614178,1.49
1762879973.620472,1.5
1762879973.6266298,1.47
1762879973.6330361,1.48
1762879973.639155,1.43
1762879973.64556,1.49
1762879973.651786,1.52
1762879973.657918,1.46
1762879973.6648152,1.49
1762879973.670513,1.51
1762879973.676907,1.46
1762879973.683125,1.5
1762879973.6892722,1.51
1762879973.6955478,1.5
1762879973.701718,1.53
1762879973.707956,1.52
1762879973.714205,1.54
1762879973.72047,1.52
1762879973.726669,1.53
1762879973.733053,1.67
1762879973.739232,1.86
1762879973.745656,2.44
1762879973.751629,3.17
1762879973.758126,3.17
1762879973.764405,3.17
1762879973.816115,3.15
1762879973.828429,1.46
1762879973.8285508,0.83
1762879973.8287308,1.64
1762879973.828942,1.77
1762879973.829078,1.42
1762879973.8293061,1.36
1762879973.829441,1.48
1762879973.834688,1.5
1762879973.837336,1.45
1762879973.837641,1.45
1762879973.8391669,1.47
1762879973.846174,1.49
1762879973.851766,1.5
1762879973.85786,1.44
1762879973.864286,1.48
1762879973.87059,1.54
1762879973.876626,1.52
1762879973.883018,1.51
1762879973.889128,1.5
1762879973.8953202,1.54
1762879973.9016168,1.57
1762879973.907823,1.53
1762879973.914211,1.6
1762879973.920353,1.63
1762879973.926616,1.59
1762879973.932896,1.62
1762879973.939214,1.66
1762879973.945516,1.67
1762879973.951643,1.7
1762879973.957919,1.7
1762879973.964293,1.77
1762879973.970599,1.8
1762879973.97681,1.78
1762879973.982943,1.82
1762879973.989429,1.82
1762879973.9953458,1.85
1762879974.001674,1.86
1762879974.007911,1.83
1762879974.014247,1.86
1762879974.0203688,1.81
1762879974.026571,1.74
1762879974.033026,1.76
1762879974.0392058,1.64
1762879974.045376,1.56
1762879974.0516229,1.55
1762879974.057923,1.49
1762879974.0644631,1.48
1762879974.070388,1.46
1762879974.076583,1.41
1762879974.082879,1.46
1762879974.089159,1.43
1762879974.095424,1.39
1762879974.101621,1.44
1762879974.107866,1.45
1762879974.114573,1.43
1762879974.1205819,1.43
1762879974.1267872,1.45
1762879974.133017,1.45
1762879974.1391091,1.43
1762879974.145428,1.44
1762879974.151587,1.48
1762879974.157993,1.46
1762879974.164462,1.49
1762879974.1704068,1.51
1762879974.176613,1.46
1762879974.182953,1.5
1762879974.1890728,1.48
1762879974.1953762,1.48
1762879974.201528,1.52
1762879974.207825,1.5
1762879974.2142148,1.51
1762879974.220381,1.49
1762879974.226629,1.48
1762879974.232882,1.53
1762879974.2390468,1.52
1762879974.245307,1.51
1762879974.2515259,1.51
1762879974.257851,1.48
1762879974.264319,1.51
1762879974.270593,1.49
1762879974.276663,1.47
1762879974.282967,1.52
1762879974.289092,1.49
1762879974.2954361,1.49
1762879974.301548,1.51
1762879974.307907,1.48
1762879974.314206,1.51
1762879974.320377,1.51
1762879974.32674,1.5
1762879974.333011,1.5
1762879974.338994,1.51
1762879974.3453472,1.5
1762879974.351529,1.52
1762879974.357868,1.48
1762879974.364516,1.47
1762879974.370409,1.51
1762879974.3765461,1.53
1762879974.3828638,1.53
1762879974.389123,1.49
1762879974.395404,1.51
1762879974.401591,1.55
1762879974.407733,1.51
1762879974.4140952,1.58
1762879974.42034,1.65
1762879974.426837,1.6
1762879974.432863,1.68
1762879974.439261,1.76
1762879974.44532,1.72
1762879974.451551,1.65
1762879974.457788,1.65
1762879974.464444,1.71
1762879974.470421,1.56
1762879974.476514,1.45
1762879974.48281,1.5
1762879974.488995,1.48
1762879974.495256,1.47
1762879974.501479,1.48
1762879974.50773,1.45
1762879974.514483,1.46
1762879974.5202901,1.48
1762879974.526679,1.47
1762879974.532823,1.49
1762879974.5389981,1.46
1762879974.545333,1.47
1762879974.551531,1.51
1762879974.5577888,1.49
1762879974.564117,1.49
1762879974.57027,1.51
1762879974.576443,1.51
1762879974.582724,1.54
1762879974.5889752,1.53
1762879974.595273,1.59
1762879974.601501,1.76
1762879974.6077728,2.17
1762879974.614115,3.06
1762879974.62026,3.17
1762879974.6264791,3.17
1762879974.6327932,3.17
1762879974.638977,2.05
1762879974.64517,0.71
1762879974.651417,1.48
1762879974.657671,1.84
1762879974.6640608,1.46
1762879974.6701949,1.33
1762879974.6764338,1.45
1762879974.682754,1.49
1762879974.688951,1.46
1762879974.6951969,1.46
1762879974.701422,1.47
1762879974.707765,1.46
1762879974.7139862,1.46
1762879974.7202308,1.47
1762879974.726624,1.49
1762879974.732727,1.52
1762879974.739085,1.49
1762879974.7452202,1.49
1762879974.751497,1.55
1762879974.757731,1.53
1762879974.76393,1.54
1762879974.770186,1.58
1762879974.776458,1.54
1762879974.7826822,1.6
1762879974.788912,1.61
1762879974.795397,1.6
1762879974.801362,1.65
1762879974.807693,1.64
1762879974.814116,1.69
1762879974.820174,1.73
1762879974.826545,1.72
1762879974.832692,1.78
1762879974.83888,1.81
1762879974.845237,1.79
1762879974.8514109,1.82
1762879974.8578172,1.79
1762879974.864494,1.84
1762879974.870228,1.88
1762879974.8764958,1.83
1762879974.8827982,1.82
1762879974.88895,1.78
1762879974.895159,1.73
1762879974.901433,1.7
1762879974.907731,1.61
1762879974.914193,1.56
1762879974.9201548,1.52
1762879974.926514,1.48
1762879974.932876,1.45
1762879974.938977,1.43
1762879974.945208,1.43
1762879974.9515011,1.43
1762879974.9577339,1.41
1762879974.9639108,1.42
1762879974.970198,1.4
1762879974.976448,1.4
1762879974.9826372,1.47
1762879974.988929,1.44
1762879974.9951959,1.42
1762879975.001398,1.46
1762879975.0076559,1.44
1762879975.014081,1.43
1762879975.0201228,1.49
1762879975.026377,1.47
1762879975.0326872,1.47
1762879975.0390131,1.47
1762879975.045287,1.47
1762879975.0514402,1.51
1762879975.057625,1.49
1762879975.064049,1.5
1762879975.070549,1.5
1762879975.076413,1.47
1762879975.082643,1.51
1762879975.088927,1.51
1762879975.095171,1.51
1762879975.1013272,1.54
1762879975.10771,1.51
1762879975.113987,1.5
1762879975.120075,1.49
1762879975.126365,1.5
1762879975.132658,1.53
1762879975.138926,1.48
1762879975.1451719,1.47
1762879975.151316,1.53
1762879975.15761,1.52
1762879975.1639411,1.5
1762879975.17016,1.5
1762879975.1764429,1.49
1762879975.1880908,1.51
1762879975.200913,1.52
1762879975.212374,1.52
1762879975.217821,1.52
1762879975.234269,1.49
1762879975.245704,1.53
1762879975.24944,1.53
1762879975.2495208,1.47
1762879975.249577,1.51
1762879975.2496278,1.55
1762879975.2496798,1.52
1762879975.257359,1.5
1762879975.257668,1.53
1762879975.263826,1.57
1762879975.270464,1.54
1762879975.276426,1.49
1762879975.28263,1.52
1762879975.288922,1.56
1762879975.295169,1.55
1762879975.301321,1.57
1762879975.307748,1.53
1762879975.314027,1.55
1762879975.32019,1.58
1762879975.326399,1.64
1762879975.332753,1.69
1762879975.338816,1.68
1762879975.3451781,1.74
1762879975.3513548,1.8
1762879975.3575292,1.7
1762879975.3643131,1.64
1762879975.370124,1.72
1762879975.3763342,1.68
1762879975.382516,1.58
1762879975.388741,1.49
1762879975.395099,1.51
1762879975.401472,1.55
1762879975.407588,1.48
1762879975.4138482,1.49
1762879975.420206,1.53
1762879975.426364,1.51
1762879975.432589,1.52
1762879975.438859,1.49
1762879975.445065,1.48
1762879975.4513521,1.54
1762879975.45756,1.53
1762879975.4638321,1.52
1762879975.47015,1.54
1762879975.476368,1.52
1762879975.4825978,1.55
1762879975.488949,1.58
1762879975.4950788,1.54
1762879975.50145,1.59
1762879975.5075572,1.74
1762879975.514184,2.08
1762879975.520098,2.82
1762879975.526339,3.17
1762879975.5325818,3.17
1762879975.538744,3.17
1762879975.545027,2.59
1762879975.5513248,0.85
1762879975.557569,1.2
1762879975.563757,1.91
1762879975.57023,1.63
1762879975.576303,1.35
1762879975.58263,1.48
1762879975.5888,1.52
1762879975.595071,1.47
1762879975.601213,1.49
1762879975.607539,1.48
1762879975.6139,1.48
1762879975.620096,1.51
1762879975.6264808,1.5
1762879975.6325681,1.54
1762879975.638857,1.53
1762879975.6451101,1.52
1762879975.651469,1.54
1762879975.657514,1.56
1762879975.6639202,1.59
1762879975.670454,1.6
1762879975.676378,1.57
1762879975.682482,1.61
1762879975.688939,1.6
1762879975.6950452,1.59
1762879975.7012858,1.66
1762879975.707542,1.67
1762879975.713799,1.69
1762879975.7200608,1.71
1762879975.726175,1.71
1762879975.732547,1.76
1762879975.738818,1.77
1762879975.744967,1.75
1762879975.751325,1.84
1762879975.757527,1.84
1762879975.763815,1.84
1762879975.7703948,1.87
1762879975.776287,1.85
1762879975.7825432,1.87
1762879975.788764,1.85
1762879975.795032,1.82
1762879975.801397,1.79
1762879975.807488,1.7
1762879975.813782,1.65
1762879975.820236,1.63
1762879975.826304,1.53
1762879975.8325162,1.49
1762879975.838722,1.46
1762879975.8450491,1.48
1762879975.851237,1.49
1762879975.8574579,1.43
1762879975.863743,1.42
1762879975.869987,1.47
1762879975.876266,1.45
1762879975.8825018,1.44
1762879975.888847,1.45
1762879975.894984,1.45
1762879975.901209,1.45
1762879975.907456,1.45
1762879975.913884,1.49
1762879975.9200242,1.5
1762879975.926167,1.44
1762879975.9324281,1.5
1762879975.938775,1.5
1762879975.945444,1.47
1762879975.951288,1.51
1762879975.9574442,1.5
1762879975.963779,1.51
1762879975.970313,1.52
1762879975.9761522,1.5
1762879975.982416,1.53
1762879975.988826,1.52
1762879975.994976,1.51
1762879976.0013282,1.54
1762879976.007473,1.53
1762879976.013759,1.52
1762879976.0200582,1.53
1762879976.026401,1.51
1762879976.0325801,1.51
1762879976.038965,1.52
1762879976.0451221,1.52
1762879976.05125,1.52
1762879976.057529,1.5
1762879976.063787,1.51
1762879976.0700731,1.53
1762879976.076287,1.51
1762879976.0824509,1.54
1762879976.088758,1.52
1762879976.095107,1.47
1762879976.101223,1.54
1762879976.107449,1.54
1762879976.1137438,1.52
1762879976.120103,1.53
1762879976.1262012,1.49
1762879976.1323771,1.52
1762879976.1386309,1.53
1762879976.1456509,1.53
1762879976.151139,1.54
1762879976.1574159,1.5
1762879976.163699,1.52
1762879976.169972,1.57
1762879976.1762838,1.53
1762879976.182428,1.54
1762879976.188703,1.53
1762879976.195441,1.5
1762879976.2014349,1.56
1762879976.207459,1.61
1762879976.213939,1.67
1762879976.21998,1.66
1762879976.2263439,1.63
1762879976.232547,1.74
1762879976.238677,1.77
1762879976.245736,1.72
1762879976.251091,1.68
1762879976.257396,1.7
1762879976.2637708,1.65
1762879976.270164,1.56
1762879976.2761972,1.49
1762879976.282511,1.5
1762879976.288624,1.54
1762879976.295947,1.51
1762879976.301093,1.5
1762879976.307363,1.47
1762879976.31368,1.51
1762879976.319861,1.52
1762879976.326174,1.51
1762879976.3324401,1.52
1762879976.338638,1.51
1762879976.3457541,1.53
1762879976.3511271,1.55
1762879976.357431,1.54
1762879976.363583,1.54
1762879976.369844,1.56
1762879976.376169,1.53
1762879976.382389,1.57
1762879976.3886552,1.63
1762879976.3952188,1.74
1762879976.401143,2.04
1762879976.407305,2.83
1762879976.413609,3.17
1762879976.419924,3.17
1762879976.426122,3.17
1762879976.432416,2.78
1762879976.4386408,0.98
1762879976.4455318,1.14
1762879976.451099,1.86
1762879976.457366,1.64
1762879976.46363,1.37
1762879976.4699268,1.49
1762879976.47614,1.53
1762879976.482465,1.49
1762879976.488599,1.47
1762879976.4948869,1.48
1762879976.501055,1.53
1762879976.507359,1.49
1762879976.513685,1.48
1762879976.519864,1.54
1762879976.5262442,1.55
1762879976.5323899,1.54
1762879976.5386932,1.53
1762879976.545014,1.56
1762879976.551223,1.59
1762879976.557377,1.56
1762879976.563702,1.59
1762879976.569938,1.62
1762879976.576138,1.59
1762879976.582438,1.63
1762879976.588755,1.66
1762879976.5948758,1.66
1762879976.6062012,1.71
1762879976.611658,1.69
1762879976.621422,1.74
1762879976.633395,1.78
1762879976.6379688,1.77
1762879976.638093,1.8
1762879976.671645,1.8
1762879976.6719491,1.84
1762879976.672021,1.91
1762879976.672174,1.84
1762879976.672277,1.86
1762879976.67235,1.9
1762879976.6760378,1.82
1762879976.687069,1.81
1762879976.688567,1.78
1762879976.694988,1.74
1762879976.701223,1.7
1762879976.707326,1.6
1762879976.71361,1.54
1762879976.719861,1.53
1762879976.726154,1.48
1762879976.732377,1.48
1762879976.738507,1.46
1762879976.7449238,1.43
1762879976.751093,1.49
1762879976.757267,1.45
1762879976.763584,1.43
1762879976.769983,1.45
1762879976.776191,1.42
1762879976.78245,1.45
1762879976.7885592,1.48
1762879976.794848,1.45
1762879976.8010979,1.49
1762879976.807477,1.48
1762879976.813835,1.47
1762879976.8200161,1.52
1762879976.826061,1.49
1762879976.832342,1.49
1762879976.8386052,1.52
1762879976.845047,1.52
1762879976.8513632,1.53
1762879976.8573241,1.5
1762879976.86372,1.52
1762879976.869953,1.55
1762879976.8763468,1.5
1762879976.882495,1.51
1762879976.8887181,1.56
1762879976.89484,1.51
1762879976.901118,1.52
1762879976.9075031,1.53
1762879976.9135711,1.53
1762879976.919871,1.54
1762879976.9262772,1.51
1762879976.932298,1.51
1762879976.938602,1.52
1762879976.944862,1.5
1762879976.9511838,1.51
1762879976.957301,1.52
1762879976.963593,1.53
1762879976.9699259,1.55
1762879976.976299,1.48
1762879976.982421,1.52
1762879976.988482,1.52
1762879976.9951959,1.48
1762879977.001246,1.54
1762879977.007294,1.54
1762879977.013634,1.52
1762879977.0198221,1.52
1762879977.026083,1.5
1762879977.032189,1.54
1762879977.038464,1.54
1762879977.0447948,1.52
1762879977.051009,1.59
1762879977.0572958,1.65
1762879977.0635562,1.64
1762879977.069717,1.66
1762879977.0760472,1.7
1762879977.0823228,1.78
1762879977.088445,1.74
1762879977.094869,1.62
1762879977.101103,1.69
1762879977.1073148,1.63
1762879977.113547,1.52
1762879977.119753,1.55
1762879977.125958,1.49
1762879977.132294,1.48
1762879977.138557,1.46
1762879977.144756,1.46
1762879977.151257,1.52
1762879977.157314,1.47
1762879977.163512,1.5
1762879977.16977,1.52
1762879977.175945,1.47
1762879977.182341,1.51
1762879977.1885362,1.51
1762879977.195171,1.5
1762879977.2011268,1.54
1762879977.207299,1.51
1762879977.213472,1.51
1762879977.219743,1.56
1762879977.22596,1.51
1762879977.232275,1.57
1762879977.238621,1.72
1762879977.244763,1.94
1762879977.250935,2.64
1762879977.2572951,3.17
1762879977.263454,3.17
1762879977.2697248,3.17
1762879977.27615,2.99
1762879977.282187,1.13
1762879977.288518,0.99
1762879977.295084,1.74
1762879977.3010628,1.71
1762879977.307261,1.37
1762879977.313418,1.4
1762879977.319718,1.52
1762879977.325946,1.46
1762879977.332234,1.45
1762879977.338488,1.46
1762879977.3447108,1.44
1762879977.350904,1.5
1762879977.357144,1.46
1762879977.3633568,1.49
1762879977.369736,1.51
1762879977.375975,1.5
1762879977.382587,1.53
1762879977.388511,1.56
1762879977.394816,1.52
1762879977.400928,1.56
1762879977.407261,1.57
1762879977.413428,1.56
1762879977.4197152,1.56
1762879977.426083,1.57
1762879977.432271,1.62
1762879977.438508,1.63
1762879977.444798,1.63
1762879977.450956,1.67
1762879977.457324,1.7
1762879977.4636412,1.7
1762879977.4697442,1.73
1762879977.4760199,1.76
1762879977.4821792,1.84
1762879977.4884741,1.82
1762879977.495002,1.76
1762879977.501152,1.8
1762879977.507178,1.85
1762879977.5134568,1.86
1762879977.5196512,1.85
1762879977.5259452,1.77
1762879977.532108,1.74
1762879977.538403,1.71
1762879977.5447009,1.61
1762879977.550881,1.57
1762879977.5571241,1.54
1762879977.5633311,1.47
1762879977.5695639,1.45
1762879977.5758889,1.44
1762879977.582174,1.43
1762879977.5884092,1.43
1762879977.594611,1.41
1762879977.600815,1.43
1762879977.607119,1.4
1762879977.613387,1.39
1762879977.619679,1.45
1762879977.625887,1.43
1762879977.632122,1.42
1762879977.63844,1.44
1762879977.644635,1.42
1762879977.650909,1.45
1762879977.657137,1.45
1762879977.663383,1.46
1762879977.669736,1.48
1762879977.6758988,1.45
1762879977.683614,1.46
1762879977.708593,1.46
1762879977.717016,1.46
1762879977.728757,1.53
1762879977.746319,1.5
1762879977.7464042,1.47
1762879977.7464561,1.5
1762879977.7466218,1.49
1762879977.746719,1.52
1762879977.746776,1.51
1762879977.746828,1.47
1762879977.756832,1.51
1762879977.7571971,1.51
1762879977.765547,1.48
1762879977.769631,1.49
1762879977.776028,1.47
1762879977.7820969,1.51
1762879977.7884579,1.48
1762879977.794821,1.45
1762879977.801016,1.52
1762879977.8071868,1.51
1762879977.813407,1.47
1762879977.819641,1.51
1762879977.8258822,1.49
1762879977.832049,1.5
1762879977.838371,1.5
1762879977.844703,1.48
1762879977.851041,1.51
1762879977.8575628,1.51
1762879977.863394,1.52
1762879977.869659,1.52
1762879977.8758788,1.49
1762879977.8821309,1.52
1762879977.888417,1.52
1762879977.8947148,1.47
1762879977.9008791,1.54
1762879977.907145,1.52
1762879977.913249,1.5
1762879977.919562,1.52
1762879977.9258828,1.5
1762879977.9323678,1.57
1762879977.9383008,1.65
1762879977.944594,1.61
1762879977.950887,1.64
1762879977.957223,1.73
1762879977.963302,1.74
1762879977.969544,1.71
1762879977.9758809,1.64
1762879977.9821959,1.68
1762879977.988331,1.65
1762879977.994578,1.5
1762879978.00084,1.52
1762879978.006996,1.51
1762879978.0134652,1.48
1762879978.0196228,1.48
1762879978.025863,1.46
1762879978.032081,1.47
1762879978.038398,1.49
1762879978.0447822,1.48
1762879978.050865,1.5
1762879978.056999,1.46
1762879978.070216,1.46
1762879978.090604,1.52
1762879978.1135979,1.52
1762879978.1144361,1.52
1762879978.1145651,1.51
1762879978.114666,1.51
1762879978.114775,1.57
1762879978.114903,1.52
1762879978.114996,1.51
1762879978.130267,1.64
1762879978.1303601,1.84
1762879978.132907,2.39
1762879978.138771,3.16
1762879978.144614,3.17
1762879978.152538,3.17
1762879978.1570408,3.14
1762879978.16335,1.47
1762879978.16974,0.84
1762879978.1757782,1.64
1762879978.182039,1.78
1762879978.1883478,1.42
1762879978.194803,1.35
1762879978.200879,1.53
1762879978.207117,1.48
1762879978.213601,1.38
1762879978.2195258,1.47
1762879978.2258308,1.48
1762879978.2320619,1.47
1762879978.2382789,1.5
1762879978.2446,1.49
1762879978.2507899,1.52
1762879978.257066,1.47
1762879978.26326,1.47
1762879978.26965,1.55
1762879978.275808,1.53
1762879978.2821991,1.53
1762879978.2882729,1.57
1762879978.2946272,1.53
1762879978.300776,1.57
1762879978.3069582,1.61
1762879978.313331,1.61
1762879978.319593,1.63
1762879978.325748,1.63
1762879978.332059,1.65
1762879978.338399,1.73
1762879978.344539,1.71
1762879978.350742,1.74
1762879978.356947,1.75
1762879978.363371,1.8
1762879978.36958,1.84
1762879978.375823,1.81
1762879978.3819919,1.83
1762879978.388299,1.86
1762879978.3945851,1.82
1762879978.400791,1.86
1762879978.407073,1.84
1762879978.4133399,1.75
1762879978.4194822,1.73
1762879978.4257479,1.68
1762879978.431962,1.63
1762879978.438186,1.56
1762879978.444567,1.47
1762879978.450757,1.49
1762879978.457026,1.46
1762879978.463287,1.39
1762879978.469602,1.43
1762879978.475855,1.42
1762879978.482244,1.41
1762879978.488369,1.45
1762879978.494695,1.42
1762879978.5007691,1.43
1762879978.50701,1.42
1762879978.513303,1.41
1762879978.519455,1.46
1762879978.525881,1.41
1762879978.5320508,1.42
1762879978.538341,1.46
1762879978.544502,1.45
1762879978.550786,1.47
1762879978.5569742,1.48
1762879978.563209,1.46
1762879978.569487,1.47
1762879978.576074,1.47
1762879978.58223,1.51
1762879978.588246,1.52
1762879978.59456,1.47
1762879978.6007512,1.51
1762879978.606994,1.5
1762879978.6132429,1.48
1762879978.619583,1.52
1762879978.625812,1.5
1762879978.63199,1.48
1762879978.638334,1.52
1762879978.644484,1.49
1762879978.650744,1.51
1762879978.6570702,1.51
1762879978.663331,1.49
1762879978.669506,1.5
1762879978.675733,1.47
1762879978.6820438,1.48
1762879978.6882932,1.53
1762879978.6945732,1.52
1762879978.700742,1.5
1762879978.7070248,1.46
1762879978.713362,1.5
1762879978.719456,1.58
1762879978.72576,1.53
1762879978.7319849,1.49
1762879978.738271,1.52
1762879978.744519,1.5
1762879978.7507641,1.51
1762879978.757004,1.53
1762879978.763223,1.51
1762879978.769439,1.53
1762879978.776374,1.52
1762879978.781854,1.54
1762879978.788214,1.55
1762879978.794477,1.49
1762879978.800647,1.49
1762879978.807047,1.55
1762879978.813251,1.58
1762879978.819398,1.66
1762879978.825789,1.63
1762879978.831855,1.61
1762879978.838228,1.68
1762879978.844407,1.75
1762879978.850673,1.79
1762879978.856884,1.68
1762879978.863256,1.65
1762879978.8693912,1.69
1762879978.8757,1.57
1762879978.882024,1.52
1762879978.8884108,1.55
1762879978.894471,1.51
1762879978.900662,1.5
1762879978.906941,1.49
1762879978.913194,1.48
1762879978.919463,1.52
1762879978.9263291,1.48
1762879978.931888,1.5
1762879978.938227,1.54
1762879978.944366,1.5
1762879978.950607,1.5
1762879978.956992,1.49
1762879978.96314,1.55
1762879978.9697611,1.58
1762879978.976085,1.53
1762879978.9820402,1.52
1762879978.9881668,1.56
1762879978.994408,1.57
1762879979.00065,1.72
1762879979.006933,1.95
1762879979.0132108,2.57
1762879979.0193658,3.17
1762879979.025943,3.17
1762879979.031884,3.17
1762879979.038141,3.09
1762879979.044322,1.27
1762879979.050643,0.95
1762879979.0568,1.75
1762879979.063144,1.71
1762879979.069361,1.42
1762879979.0759559,1.4
1762879979.081856,1.48
1762879979.088112,1.52
1762879979.0943098,1.47
1762879979.100613,1.49
1762879979.106835,1.5
1762879979.1130931,1.47
1762879979.119444,1.52
1762879979.125611,1.5
1762879979.131878,1.52
1762879979.138148,1.54
1762879979.144434,1.53
1762879979.15069,1.55
1762879979.156883,1.57
1762879979.163139,1.56
1762879979.1694589,1.59
1762879979.1756852,1.6
1762879979.181963,1.63
1762879979.188173,1.62
1762879979.19446,1.59
1762879979.200604,1.67
1762879979.2068212,1.69
1762879979.213047,1.66
1762879979.219379,1.74
1762879979.225944,1.76
1762879979.231858,1.76
1762879979.238144,1.78
1762879979.244359,1.82
1762879979.250605,1.86
1762879979.25701,1.84
1762879979.263073,1.84
1762879979.2693398,1.9
1762879979.275747,1.85
1762879979.281829,1.83
1762879979.288159,1.86
1762879979.2942889,1.78
1762879979.30054,1.71
1762879979.306849,1.67
1762879979.31303,1.59
1762879979.319387,1.53
1762879979.3256419,1.51
1762879979.331947,1.52
1762879979.338092,1.48
1762879979.344383,1.43
1762879979.350532,1.44
1762879979.3570619,1.42
1762879979.3630238,1.43
1762879979.36962,1.46
1762879979.3756459,1.43
1762879979.3817961,1.44
1762879979.388117,1.45
1762879979.3942568,1.42
1762879979.400596,1.47
1762879979.406799,1.47
1762879979.4130309,1.43
1762879979.419213,1.43
1762879979.425645,1.47
1762879979.4319448,1.51
1762879979.438157,1.52
1762879979.444341,1.45
1762879979.4508622,1.48
1762879979.4566631,1.52
1762879979.475612,1.52
1762879979.483038,1.52
1762879979.488189,1.48
1762879979.4883552,1.5
1762879979.4897642,1.54
1762879979.498616,1.52
1762879979.503356,1.52
1762879979.509089,1.5
1762879979.5151281,1.5
1762879979.522301,1.52
1762879979.525656,1.48
1762879979.531775,1.51
1762879979.5381389,1.57
1762879979.544322,1.51
1762879979.550693,1.51
1762879979.5578299,1.49
1762879979.563046,1.48
1762879979.5692701,1.56
1762879979.575659,1.52
1762879979.581834,1.49
1762879979.5879831,1.5
1762879979.594232,1.49
1762879979.600488,1.51
1762879979.6067572,1.52
1762879979.6129348,1.5
1762879979.619308,1.52
1762879979.62568,1.49
1762879979.631855,1.54
1762879979.6381052,1.57
1762879979.644301,1.56
1762879979.650513,1.62
1762879979.656727,1.62
1762879979.662914,1.62
1762879979.6692538,1.74
1762879979.67556,1.77
1762879979.681817,1.68
1762879979.687994,1.63
1762879979.694205,1.64
1762879979.700465,1.61
1762879979.7067132,1.51
1762879979.712947,1.48
1762879979.719222,1.51
1762879979.725555,1.49
1762879979.731735,1.48
1762879979.737908,1.48
1762879979.744221,1.45
1762879979.750491,1.5
1762879979.756685,1.51
1762879979.762908,1.48
1762879979.769269,1.49
1762879979.775839,1.48
1762879979.781713,1.5
1762879979.78796,1.48
1762879979.794265,1.5
1762879979.800389,1.56
1762879979.806744,1.54
1762879979.8129542,1.49
1762879979.819254,1.53
1762879979.8255029,1.59
1762879979.8317518,1.7
1762879979.8379562,1.95
1762879979.844171,2.6
1762879979.850472,3.17
1762879979.8567429,3.17
1762879979.86288,3.17
1762879979.869199,3.02
1762879979.8755572,1.19
1762879979.881706,0.99
1762879979.888014,1.75
1762879979.894155,1.64
1762879979.900427,1.35
1762879979.906744,1.45
1762879979.912988,1.52
1762879979.919189,1.47
1762879979.9256,1.43
1762879979.931736,1.45
1762879979.938,1.52
1762879979.9442759,1.48
1762879979.95043,1.5
1762879979.956714,1.51
1762879979.9628649,1.49
1762879979.9692109,1.5
1762879979.975557,1.52
1762879979.981689,1.55
1762879979.987914,1.56
1762879979.9941509,1.54
1762879980.000431,1.57
1762879980.0067499,1.56
1762879980.012905,1.57
1762879980.019125,1.64
1762879980.0255558,1.61
1762879980.031646,1.62
1762879980.037944,1.68
1762879980.044121,1.66
1762879980.0504699,1.7
1762879980.056622,1.75
1762879980.0629172,1.76
1762879980.069176,1.8
1762879980.075391,1.81
1762879980.0816572,1.82
1762879980.08791,1.84
1762879980.094154,1.84
1762879980.10038,1.88
1762879980.106682,1.86
1762879980.112951,1.79
1762879980.119113,1.79
1762879980.125397,1.76
1762879980.1316092,1.69
1762879980.1380322,1.63
1762879980.144107,1.57
1762879980.150346,1.57
1762879980.1566541,1.52
1762879980.1629062,1.44
1762879980.169204,1.46
1762879980.175471,1.41
1762879980.1816692,1.39
1762879980.187903,1.47
1762879980.194096,1.44
1762879980.200348,1.41
1762879980.20663,1.41
1762879980.2129211,1.41
1762879980.219347,1.46
1762879980.225661,1.43
1762879980.2316108,1.42
1762879980.2378728,1.5
1762879980.24421,1.44
1762879980.250357,1.43
1762879980.256675,1.46
1762879980.2628741,1.46
1762879980.269127,1.5
1762879980.275771,1.47
1762879980.2816699,1.46
1762879980.2879202,1.5
1762879980.294098,1.5
1762879980.3003619,1.52
1762879980.306627,1.47
1762879980.3128588,1.46
1762879980.31909,1.57
1762879980.325378,1.53
1762879980.331651,1.48
1762879980.337929,1.52
1762879980.344207,1.51
1762879980.350372,1.5
1762879980.356554,1.49
1762879980.362871,1.5
1762879980.369129,1.53
1762879980.37535,1.49
1762879980.381566,1.48
1762879980.388095,1.52
1762879980.394103,1.49
1762879980.400339,1.47
1762879980.40657,1.5
1762879980.4128692,1.45
1762879980.419204,1.5
1762879980.425725,1.52
1762879980.431647,1.49
